# ecg
-0.0551548638
-0.1928142364
0.0850737652
-0.0172695165
-0.1929027972
0.0776098661
-0.0967021724
-0.1952969573
0.0315420036
0.0679316247
-0.0530943407
-0.0658935733
-0.1637667978
-0.0633113684
-0.1137889726
-0.0399345776
0.1347125095
-0.2958254341
-0.0828802064
-0.1377149689
-0.0034219427
-0.0234233090
-0.1067245591
-0.1929669846
-0.0998407172
0.1628397189
-0.2078785309
-0.0293738472
-0.2815149403
0.0278953968
-0.1558058669
-0.2579005232
-0.0637936864
-0.1755375753
-0.1027067339
-0.3645434557
-0.2003217897
-0.0438466363
-0.2063204206
-0.1390088123
-0.1163840543
-0.2858136695
-0.3684476570
-0.0647140725
-0.1727276759
-0.1992836565
0.0295464970
-0.5485881842
-0.1558969528
-0.2923028686
0.0437906235
-0.0827704006
-0.3348909985
-0.3270940509
-0.2314154069
-0.0532871511
-0.1249590275
-0.3573071805
-0.1285862003
-0.2716811273
-0.3107558321
-0.0841034556
-0.2782788473
-0.3278769950
-0.3584942022
-0.2836174247
-0.3582487180
-0.4586829775
-0.3654247918
-0.0184523577
-0.5151353428
-0.3185791002
0.1001911686
0.3505293874
0.5692700812
0.6094894885
0.9179862128
0.6749178159
0.9965850648
0.6074680461
0.3312160296
0.0022848280
-0.3346925796
-0.4772576909
-0.3621369318
-0.1743996303
-0.1597629242
-0.2968597358
-0.3070936823
-0.0713989598
-0.5452636944
-0.0962897219
-0.1382313197
-0.1366939403
-0.4504647625
-0.3176380904
-0.0477824971
-0.1697747220
-0.3046026202
-0.4472948888
-0.0807952642
-0.3142256009
-0.1622885183
-0.2394134522
-0.2406330766
-0.1631951230
-0.4871713790
-0.1726746319
-0.2463158641
-0.0894019704
-0.1989472752
-0.4416424326
-0.2342593433
-0.0738065458
-0.3020811221
-0.3104468204
-0.1614354382
-0.2189848551
-0.4466528762
-0.1164819839
-0.3689425298
-0.0703929716
-0.2334792070
-0.4767098201
-0.1189677666
-0.3045047738
-0.0825551172
-0.2520783336
-0.3237640655
-0.3311171827
-0.2456062677
-0.0886833322
-0.2635785243
-0.2111023550
-0.3448330967
-0.2316534834
-0.3994996141
-0.1909949901
-0.0622396361
-0.3272013934
-0.2695697357
-0.3002904752
-0.2550044389
-0.1500188095
-0.2362229319
-0.4004846398
-0.0479223684
-0.3386592752
-0.2275064142
-0.2582486687
-0.3753338856
-0.2576399973
-0.0403821198
-0.3168764186
-0.3048531831
-0.1613600337
-0.4043642853
-0.1970722447
-0.2887687485
-0.2343707643
-0.0505316258
-0.3340116370
-0.4013841289
-0.3347891910
-0.1132221272
-0.2340571206
-0.2998569336
-0.1892198636
-0.2575273999
-0.3950457645
-0.2770176402
-0.3103718690
-0.0874702980
-0.3498972272
-0.3447120630
-0.2341194638
-0.3447290324
-0.0873654545
-0.5268438850
-0.1527374638
-0.1995667150
-0.4335239665
-0.1663579198
-0.1946167026
-0.4417342089
-0.2559524369
-0.2328264141
-0.2764497408
-0.1121137834
-0.2332507417
-0.3022816949
-0.3409146751
-0.3048947092
0.0204451301
-0.2371537753
-0.1798946319
-0.2396975203
-0.3616031537
-0.1436531818
-0.0359882399
-0.1620365023
-0.2994623959
-0.0828447999
-0.1691432667
-0.1731155999
-0.1984836234
-0.1934364980
0.0083668181
-0.1615549868
-0.2395510605
-0.2254622758
-0.1282305980
-0.0632099438
-0.1640187030
-0.2630023318
-0.0810337226
-0.2550160101
-0.0506511965
-0.1331902108
-0.3305429517
-0.1402498277
-0.0938346055
-0.1796797830
-0.2100912298
-0.1710633898
-0.1875641402
-0.1833890949
-0.2033476986
-0.2217632173
-0.1215683895
-0.1084786698
-0.2752983168
-0.2395512611
-0.1876471972
-0.0768988408
-0.2163555536
-0.2729006144
0.0082273032
-0.3849734367
-0.0756863524
-0.3473283031
-0.0967059528
-0.0256139003
-0.3815768917
-0.1304109222
-0.4123040825
0.1067818200
-0.4244525396
-0.1516670879
-0.2122638154
-0.2121838702
-0.1600666923
-0.3233694646
-0.1039765991
-0.3384597333
-0.0695495263
-0.2223161943
-0.1194735954
-0.2111503842
-0.4853546370
-0.1348620075
-0.0067664003
-0.2384874834
-0.2826634977
-0.2497732542
-0.2717601311
-0.1795484019
-0.1878070650
-0.1735273859
-0.2655746943
-0.2426156431
-0.1938531164
-0.2514400965
-0.3054679355
-0.1417260968
-0.1780816703
-0.1611434262
-0.3648159720
-0.3134416834
-0.1219387023
-0.1838192766
-0.2118062894
-0.1973894145
-0.2164398636
-0.2065970570
-0.3888935015
-0.0530716310
-0.1203967934
-0.2967614891
-0.2426071650
-0.1353075568
-0.2700127140
-0.1716374416
-0.3611380683
0.1068026764
-0.3383724741
-0.3867315087
-0.0658425897
-0.2290661985
0.0246973357
-0.3739263326
-0.2360394345
0.0021636153
-0.1857703332
-0.2511636897
-0.1295348768
-0.1252634316
0.0448112904
-0.2839770771
-0.0896033976
-0.0626084621
-0.2248653585
-0.1196116769
0.0089066196
-0.2360008744
-0.2924561119
0.0937304165
-0.2003313927
-0.1009573691
-0.2579022975
-0.2742341267
0.1094139868
-0.0394880412
-0.1888369046
-0.3349736276
-0.2995261477
-0.0498942600
-0.1057510124
-0.4415150710
-0.0327654210
-0.3815646609
-0.1832730385
-0.3267315872
-0.2656081234
-0.0011818513
-0.2363532901
-0.4041896308
-0.3241233121
-0.0884540253
-0.3409967854
-0.3701444362
-0.0626936217
-0.1967335906
-0.3238871640
-0.2812406262
-0.3490787805
-0.1791508426
-0.1478855682
-0.2779439481
-0.2188619172
-0.2105485523
-0.4761338320
-0.1418634777
-0.2354817580
-0.1985429053
-0.3711942528
-0.3114310144
-0.3096927674
-0.5016191567
-0.3855679025
-0.4714065189
-0.3529717837
-0.3467471834
-0.0378720610
-0.1752642757
-0.0895518443
0.2495810515
0.8859376514
0.8421405539
0.8367099252
1.0750710859
0.9204821901
0.7826220671
0.8354033386
0.1314593313
-0.0526732998
0.0015791921
-0.4981444275
-0.1652462999
-0.4534155142
-0.5237787386
-0.0656699060
-0.3508354855
-0.2582255769
-0.2977847803
-0.3599168492
-0.2958889986
-0.2079115273
-0.1449570534
-0.3888556832
-0.2882181188
-0.4236213669
-0.0190381551
-0.3294175338
-0.3443439238
-0.2919870513
-0.2205984703
-0.4225964518
-0.1312299326
-0.3526072417
-0.1749120202
-0.4847281931
-0.1243599739
-0.1600160684
-0.4682621039
-0.2116119526
-0.3258424208
0.0117913393
-0.4631484331
-0.4046331925
-0.2455214511
-0.2018913100
-0.1534322834
-0.2569889015
-0.3822159926
-0.2922980220
-0.4026802213
-0.1135048409
-0.2180589702
-0.2584319115
-0.2792656970
-0.4243477371
-0.1401858999
-0.2477321698
-0.3296629629
-0.1728484482
-0.2148392997
-0.1469951494
-0.5029177924
-0.2344955475
-0.1722236664
-0.1258973890
-0.2752032084
-0.3495676000
-0.1967499864
-0.1877048089
-0.3350601588
-0.2391685699
-0.1620653797
-0.1407716873
-0.3634604318
-0.3324627486
-0.1179562141
-0.3143069529
-0.0882753173
-0.3280520055
-0.3843608204
-0.0270770000
-0.3298870710
-0.2252043600
-0.3245274655
-0.1823791556
-0.2660524726
-0.0812432995
-0.4325395051
-0.3343165991
-0.0395506770
-0.3677687156
-0.1279900150
-0.3296833752
-0.3536517221
-0.1402568540
-0.1983425147
-0.4019670947
-0.1956333453
-0.3214053464
-0.0858076059
-0.4545389842
-0.1125359863
-0.3130886756
-0.3657047539
-0.2242157605
-0.1569852571
-0.2387257211
-0.2934446781
-0.2837309903
-0.3761791710
-0.1656820237
-0.0525886482
-0.1714708805
-0.3804145485
-0.1907933443
-0.2284489117
-0.0341690866
-0.0206261673
-0.1161405068
-0.3314474004
-0.1850262375
0.1073737237
0.0757198584
-0.3044806430
-0.2102808129
0.0051133635
0.0352455034
0.0230572414
-0.3198237366
0.0142473777
-0.1198677868
0.0852654678
-0.1148191351
-0.0373588584
-0.1460457188
-0.0518614856
-0.0085026205
-0.0048656278
-0.0437392490
-0.1324132371
-0.0977994165
0.0456003184
-0.0171969385
0.0183016764
-0.1183869772
-0.2161520391
0.1154094103
0.0006416698
0.0747207670
-0.1775795100
-0.0962977572
0.0671951253
0.0836139397
-0.0970009985
-0.0694580452
0.0013805342
0.0602712537
-0.0239262644
-0.0911236077
-0.0844741114
0.1255742122
-0.0503401097
-0.0391556575
-0.0170802565
0.1152639021
-0.2985993301
0.1775194277
-0.1543652141
0.1069043771
0.0422514836
-0.1986552679
0.1532855429
-0.1726432088
-0.1438443102
0.2997359916
-0.0393103148
-0.0866259422
-0.0668796508
-0.0524944800
0.0935765766
0.0046804766
0.0662329058
0.0288447314
-0.1714088654
-0.0266552709
0.2216300039
-0.1020043857
0.1311245542
-0.1113987753
-0.0212770544
0.0215822700
0.1205783760
0.0007736189
-0.1015625204
0.0023645853
0.1041208028
0.0398520107
0.0935241054
-0.1118056844
-0.0016399558
0.1598241691
0.1787178746
-0.1940852076
0.0010971160
0.1960317887
-0.0063750831
0.0849142692
0.0208876034
-0.0149650176
0.1289374444
-0.0177668977
0.0990774157
0.1595102414
-0.0695152259
0.0705153091
0.0915298059
0.1582778208
0.0799193683
0.0571455421
-0.1754587424
0.2807475897
0.2231740470
-0.0304000111
0.1342792461
0.0019128469
0.1141832443
0.2279408742
0.2376434938
0.2074025060
0.0170471907
0.1113736570
0.2530661587
0.2272321056
0.2177826024
0.1894722937
0.2523790840
0.1718147299
0.3152967275
0.0975199045
0.2513354187
0.2100574681
0.2816370017
0.3787497191
0.0338906499
0.1055108789
0.2642553751
0.3916116026
-0.0166374018
0.4710772764
0.1632018459
0.2947893845
0.1920162702
0.1851981342
0.2216419153
0.2207911474
0.2224031028
0.3110372777
0.0167450073
0.0751994390
0.2859456105
0.1043438993
0.2373346788
0.2074355594
0.1323411801
-0.0326408668
0.3102680461
0.1333125129
0.2799867904
0.0444142161
0.0749592687
0.1994125898
0.3001792728
0.0765450743
0.1982483459
-0.0667651395
0.2328448870
0.3374680991
0.2500883016
-0.0335182882
0.1286323799
0.1729182040
0.1870701533
0.1545656417
0.0217997903
0.0802479285
0.1242077740
-0.1186718297
-0.0258047422
-0.0166656590
0.3310030431
0.3058291160
0.4649753804
0.6591169207
0.7966479258
1.3451185839
1.6783832017
1.4250262297
1.4051329992
1.0783479052
0.5888130207
0.2658983191
0.1438928631
0.1626036725
0.1339406577
-0.0434972026
0.3420619094
0.2440138905
0.1976543648
0.1606349976
0.1956015934
0.2714444106
0.1580803356
0.2604020422
0.1537980054
0.2814900558
0.1645211818
0.2274782297
0.1661141723
0.4550344288
0.0714763103
0.1056134956
0.2249709002
0.4044011842
0.1954371136
0.1380469582
0.2329404343
0.2117831632
0.3385353252
0.1043949050
0.2202588851
0.2602719947
0.2260925602
0.3659580379
0.1411380369
0.1954791700
0.0581499926
0.5776555454
0.1054698394
0.3213447827
0.0882118812
0.2425667171
0.3636049528
0.2758520244
0.2728368599
0.1865837739
0.1891679212
0.4499165838
0.2548749840
0.1954502838
0.2758961125
0.2581442765
0.3481384529
0.0734297316
0.4312307815
0.3291207423
0.0530759766
0.3769958494
0.2749442926
0.0326993054
0.4710951005
0.4316403931
0.1234057668
0.2056911128
0.2689680770
0.2435830984
0.3544816026
0.4999020980
0.0869877104
0.1852758569
0.2849515095
0.5197522555
0.1536258752
0.3519124638
0.2451900667
0.3040603276
0.3971631512
0.2164395609
0.1534213906
0.5000702922
0.2514096855
0.1693400573
0.4252122060
0.1655837499
0.3455523813
0.2745199386
0.1745555053
0.4088012047
0.3808304377
0.1193281288
0.2125170303
0.3104001335
0.3987288785
0.2729601927
0.2083904129
0.3664294767
0.1554957066
0.3112384457
0.4007189253
0.2446516824
0.4436733855
0.2753691737
0.2018801660
0.4505841577
0.3726669328
0.4446363986
0.4232874466
0.3072919963
0.3222895113
0.3813065507
0.4289847843
0.4695865885
0.4625494589
0.3552794540
0.2949289174
0.4265289948
0.4516681782
0.5073543612
0.3677056448
0.3406385204
0.4356049133
0.3013440300
0.5858339486
0.3500053760
0.4235583584
0.2929500740
0.3523259880
0.5863434741
0.4087764888
0.2470254794
0.4862534342
0.3980203063
0.3748401577
0.3393073171
0.4645460560
0.6567752617
0.1842934298
0.2013463407
0.5494664213
0.4722778803
0.3502510634
0.3839430597
0.4321007982
0.2223148143
0.4766347208
0.2361382833
0.6456657205
0.2266775349
0.2889885279
0.6024311342
0.1877028249
0.4259373506
0.2053564903
0.5266582499
0.4681362925
0.1328234545
0.3957294536
0.4680890160
0.2798039526
0.4457965977
0.2781103967
0.4086187767
0.2810551712
0.5109382260
0.3433974465
0.1548456818
0.5306109442
0.3663261657
0.1515395992
0.6343337654
0.2020915330
0.4005770673
0.1868166997
0.5013056029
0.4076138867
0.3492748475
0.2303576351
0.4180810057
0.3277864763
0.5517301906
0.2694413346
0.2473494840
0.5075022869
0.4095103428
0.2575626333
0.3875513041
0.4412145543
0.2888112604
0.5876612030
0.1678443100
0.2480932639
0.4859269799
0.4217449785
0.3394716495
0.4860711927
0.2415138212
0.2937883306
0.3700494782
0.5119982554
0.3829737553
0.4266499980
0.2288390161
0.4882106961
0.3485442284
0.4118820685
0.4030627771
0.4624527255
0.5917357771
0.3239488703
0.3365489750
0.5048808230
0.3999018624
0.5988525314
0.5392337836
0.3533172372
0.4509524021
0.4808719549
0.5317883191
0.4852608493
0.4926182413
0.5587058608
0.4654957290
0.3751814110
0.5802206119
0.4347738712
0.4724733226
0.4889668892
0.5590061257
0.4184171663
0.4039600286
0.6391188180
0.4373420467
0.4373973167
0.6151823866
0.3127466057
0.6424913669
0.4343532033
0.2827367568
0.5642590784
0.1915273021
0.3667241070
0.4312407073
0.5459215501
0.4742128202
0.0614107518
0.3800651109
0.4116391204
0.4699055025
0.4578780652
0.3353621877
0.2382383868
0.3934115756
0.4432009337
0.3273086110
0.3903472327
0.4135967382
0.4870027557
0.2163043061
0.3498822134
0.3202493527
0.5362167830
0.3285145849
0.2873062309
0.2997891863
0.3483993018
0.3105430417
0.1642205890
0.2649990028
0.2147054551
0.2031315551
0.0899714164
0.2471984637
0.1405322288
0.2907584486
0.2141933361
0.6065333958
0.6999380836
0.8946735908
1.1851234341
1.2920451445
1.5107838386
1.6184603434
1.7528771849
1.1021574826
0.9429198081
0.4075050042
0.2659702265
0.0722896121
0.4486146923
0.4982631199
0.3555564626
0.2015380027
0.3160953050
0.5640842255
0.3354991325
0.4489301773
0.1702071598
0.3727336269
0.5415231060
0.4304832271
0.2011288874
0.2907193716
0.4537005230
0.4751403537
0.3068710921
0.3477894084
0.2548031940
0.5357568471
0.2494928264
0.4397010933
0.2575963378
0.4311479910
0.3436088286
0.3955765937
0.3517493361
0.3686837735
0.4071462001
0.2728035978
0.3659890785
0.4938013311
0.4044757218
0.1757680429
0.3046503089
0.4926400106
0.4543181663
0.2655473445
0.2961892216
0.4704394033
0.4178435553
0.1200753931
0.6598239670
0.3542501135
0.1966976741
0.3991697528
0.5152841701
0.2602808694
0.4476108736
0.2891329669
0.2499564805
0.6574346225
0.2954910718
0.3953470549
0.1706210146
0.3308288689
0.6371264973
0.4499861197
0.0537071122
0.5624927068
0.3366583554
0.2584192022
0.4920077479
0.3589150301
0.3834687467
0.4586935263
0.1883961831
0.4422261803
0.4059519911
0.4548900336
0.2159040940
0.4886466526
0.3813469647
0.4053708368
0.1237918811
0.6059115284
0.4592333503
0.1996204552
0.4397487044
0.2780012182
0.4425783630
0.4075584954
0.4114654187
0.2714328281
0.4551203727
0.2393747046
0.4516718571
0.4127557182
0.4534154064
0.2906484810
0.2195411617
0.3638798229
0.4884506424
0.4752222183
0.3777845050
0.2719338050
0.3205061989
0.4566386458
0.5176686074
0.5015648885
0.3737829145
0.3454450908
0.3897462352
0.4351619245
0.6045666402
0.4110925151
0.4914468501
0.2858920825
0.4713947412
0.5061477005
0.4153579189
0.6637311662
0.2310558289
0.4923998071
0.3015673233
0.4757020373
0.5480795875
0.5369368851
0.2816585212
0.3608536601
0.4269395898
0.5295295195
0.4181385169
0.4047463990
0.5106199359
0.4975098467
0.1434716221
0.4695559680
0.4868209613
0.4707934062
0.5451393593
0.3310427163
0.1715729102
0.4828612683
0.5956091688
0.3877669225
0.2840456099
0.5112490140
0.2816237728
0.4748584317
0.3173229119
0.5241956587
0.3075779134
0.3579909887
0.4521078734
0.2954120794
0.3616768303
0.4139962659
0.4001299081
0.4578697238
0.3592870356
0.2538363564
0.2919833830
0.6572854362
0.1655794625
0.4617789706
0.4286297666
0.2057035632
0.4009706215
0.3161600577
0.4768246016
0.2968558023
0.3672907800
0.3637080391
0.3982985372
0.2797523385
0.3532336578
0.3641233057
0.4678428378
0.3230014078
0.3645474940
0.3601514045
0.2722655317
0.2491186869
0.5140567606
0.2597292460
0.4671407940
0.1971488138
0.4670464586
0.1384222765
0.3998491012
0.3885160745
0.4202592452
0.3826972137
0.2522022006
0.0587156095
0.4896550531
0.4705631501
0.2727116234
0.2297174265
0.5093255071
0.1072210972
0.4385497723
0.3308633972
0.5297820309
0.0113140099
0.4254349381
0.5956908080
0.1375944370
0.4150386512
0.2906381826
0.4345401208
0.3321060282
0.6118266695
0.1957129436
0.2988861615
0.4881639559
0.3450193952
0.5497834971
0.2418271091
0.4871340359
0.3246316075
0.5539861401
0.3424010357
0.4469114603
0.3223422579
0.4503112483
0.5026636219
0.3044067039
0.3512995644
0.5516536963
0.2838010042
0.3208110050
0.3810799545
0.5945946750
0.3302254653
0.1567251190
0.4403953162
0.6005387597
0.2939099441
0.2798632763
0.3798890668
0.1968379377
0.3031447456
0.4356175323
0.2845224847
0.2760785682
0.3038377906
0.0358880352
0.4799523097
0.3719115491
0.2343781740
0.2005818406
0.2941800015
0.2610544781
0.2533693874
0.2341562487
0.2805356398
0.2187858979
0.2843531770
0.2596081925
0.2265543444
0.0721795112
0.3585453041
0.4088043683
0.0508522821
0.3144091360
0.2683662029
0.1311069060
0.2342050186
0.4059938734
0.1372236839
0.2451678246
0.2145970472
0.2026927427
0.1000656015
-0.0078104138
0.1550604910
0.1935595514
0.0064186824
-0.0585067732
0.2566943499
0.5296069110
0.4549580480
0.6874864677
1.1114073907
1.3301236249
1.4949431316
1.2715025389
1.0957350468
0.5967239682
0.5390820802
0.2026633209
0.1209394983
-0.0747142386
0.2230580784
0.1631496335
0.0451901889
0.3005297059
0.2541563578
0.1400294674
0.1925066175
-0.1548314736
0.4110914895
0.2225093247
0.1345697526
-0.0100291705
0.2222227224
0.2776060496
0.0894153915
0.2306088643
0.0534668345
0.1077204831
0.3371775631
0.1944134647
0.0975113827
0.1008908915
0.1399123351
0.2430817019
0.2096009545
0.0937671319
0.1413417696
0.0543268328
0.1536413986
0.2280133671
0.2391773816
0.0449430898
0.0527949820
0.0759195287
0.2197447394
0.2407953805
0.0931414967
0.1213601577
-0.0010042494
0.1723462074
0.1273801976
0.3094414040
-0.0667754578
0.1883551358
0.0306153492
0.1949290545
0.1545448843
0.2003258783
-0.1080896380
0.2861668620
0.2288006542
0.0666853029
0.0768938923
0.0677224368
0.0899691144
0.3057978929
-0.0707499020
0.2508996219
-0.0022432701
0.0682358872
0.2033080809
0.2285904769
-0.0410461742
0.2189905147
-0.0641922362
0.2387392999
0.2000378652
0.0343734768
0.0068015615
0.0562585764
0.3317712707
0.0402911263
0.0423052182
0.1465416618
-0.1844973144
0.3487268597
0.1401688219
-0.0135763809
0.0099961641
-0.0931358927
0.1208246680
0.2527910176
0.0012597798
-0.0839310307
0.0597049611
-0.1188171067
0.1369498333
0.2049670172
0.0518229803
-0.1436635383
0.0408932429
0.0909478676
0.1229953588
-0.0867481822
0.0972733597
-0.0178648636
0.1624180623
0.0394959114
0.0101908761
0.0587724167
0.1071806721
-0.0133546645
0.2724407688
0.1976198954
-0.0970610271
0.0986009643
0.1692102879
0.0604807328
0.4214464073
-0.0117863288
0.1383048575
0.0881945045
0.0455517236
0.1873886365
0.3155189942
0.0591928493
-0.0983355378
0.2815828800
0.1450472557
0.1148060800
0.0541823506
0.2617120535
0.0091018750
0.1254973459
0.1049792583
0.0778174904
0.3561974268
-0.0230304866
0.1107612719
0.0408874936
0.1869445353
0.1959646785
0.2802528623
-0.0594594508
-0.1574518987
0.2416854040
0.2753882525
0.1129562489
0.0218161935
-0.0284123723
0.0191483769
0.1466969986
0.3361089707
-0.1655167809
0.0481024813
0.0184088580
0.2174424403
0.0607609425
-0.0503303858
0.1216581900
0.1213017322
0.0929113548
-0.2519948613
0.2910048940
0.0367743247
0.0809864822
-0.0164118787
0.1206240840
-0.1597361832
0.1507025433
0.1830896994
-0.0931747678
0.1188624329
-0.0729155361
0.0093904823
0.0742928840
0.1021881510
0.0135008237
-0.0292377987
0.1289234679
-0.1842334621
0.1493463935
-0.0366515263
-0.0501740000
0.1724805237
-0.0458522753
-0.0790852109
0.0678061166
0.1835119559
-0.1826988979
-0.1419370091
0.1811906044
0.1771676633
-0.1330126539
-0.1756870532
0.2193357886
-0.2530991462
0.0938977474
0.0639284513
0.0121978078
-0.1025441795
0.0228373847
-0.1059147451
0.0167587472
-0.0478805594
0.0707294643
-0.0978221531
0.1050550043
-0.1319268920
0.0248289800
0.1379640167
-0.2447995017
0.3366750195
0.1036319621
-0.1794970070
-0.0275390079
0.2630883111
-0.0397036658
0.0808272447
0.1166603229
-0.0421064803
0.0544407359
0.2337680829
-0.0142631801
-0.0093979572
0.1708154218
-0.1321473469
0.1095962129
0.1617673342
0.0091561562
0.0685939804
0.0274233357
-0.1685743149
0.0983057238
0.2582926011
0.0943222781
-0.0307108274
-0.0750541824
0.1304823136
0.1725789910
-0.1941789013
0.0084121760
0.1197385765
-0.0566234326
-0.0779841938
-0.1876548862
-0.1230439134
0.0760818288
-0.0135170762
-0.0472130482
-0.3043239977
-0.1988004005
0.3032018680
-0.2223378309
-0.2296350320
0.0910819865
-0.1107064441
-0.2325121481
-0.0696237390
0.0630443551
-0.2171426151
-0.1341028957
-0.1120637892
-0.0333296327
-0.0933326944
-0.2124510391
-0.0032827849
-0.0686186668
-0.2268477940
-0.1103786986
-0.0797636794
-0.2807981471
-0.0345761027
-0.0885227492
-0.4633729534
-0.3022232861
-0.3023860725
-0.1988080123
-0.2016312602
-0.1243885475
-0.1796383703
-0.0956775495
0.4142675338
0.7052360686
0.6235061477
1.1865279414
1.0323220016
0.8352102884
1.0950121523
0.2394999028
-0.2185012894
-0.0179977240
-0.2694665153
-0.3191829629
-0.0820139370
-0.4032597616
-0.0587745403
-0.2827897914
-0.1946981748
-0.0013705483
-0.2974812829
-0.0090383891
-0.4769586802
-0.1244427486
-0.0573495650
-0.2652365805
-0.1878290442
-0.2392967804
-0.0934130163
-0.3064033904
-0.1541679632
-0.4097139652
-0.1101289823
0.0094279590
-0.3536220895
-0.2570406260
-0.1970448452
-0.2975308870
-0.2466975134
-0.1372461114
-0.0981620608
-0.3176108895
-0.1636725012
-0.4589414541
-0.0871350282
-0.2694682612
-0.1446349382
-0.2322753308
-0.0885129758
-0.3691541123
-0.4514229175
-0.2479907603
0.0616703366
-0.1918971132
-0.2870644440
-0.3760965375
-0.3690715018
-0.2746196742
0.0074619865
-0.3050333438
-0.2578321978
-0.3294613571
-0.2799204210
-0.3289071031
-0.2205843234
-0.1686536140
-0.2074760683
-0.3433510324
-0.2602952811
-0.2496819714
-0.3006346247
-0.2371070242
-0.3945059955
-0.0527319603
-0.3491852174
-0.3625221610
-0.1856926895
-0.4396729908
-0.2879803545
-0.1069393498
-0.4239337207
-0.1207596197
-0.4197953753
-0.2893721314
-0.3135599681
-0.2258629300
-0.2785835234
-0.3022504488
-0.2434836092
-0.2900725767
-0.2619880501
-0.5225404713
-0.3840391968
-0.0241640927
-0.2033038925
-0.4888696236
-0.5942176482
-0.0342842591
-0.4839515503
-0.3546485574
-0.2021164011
-0.3646988639
-0.4040054374
-0.4405815552
-0.3686701909
-0.2901921157
-0.3345731745
-0.2598845137
-0.5648147310
-0.2896309586
-0.3675967816
-0.4865843351
-0.0960340455
-0.4415768079
-0.3411108973
-0.3735176206
-0.2780876394
-0.1487927434
-0.4312684451
-0.2955983963
-0.0934213008
-0.3592365312
-0.2289669830
-0.3414515451
-0.1626255622
-0.2931396814
-0.2351147635
-0.1059845155
-0.3826261081
-0.2893376906
-0.2082730005
-0.3108472570
-0.1254198682
-0.2663310098
-0.3437375209
-0.2329437629
-0.2989838803
-0.1426610872
-0.2160475708
-0.4903341137
-0.0169075341
-0.4027740723
-0.1952840914
-0.2775909186
-0.1879463650
-0.3248556047
-0.3297130708
-0.1471640563
-0.3276634240
-0.2625862526
-0.2462141530
-0.4125122426
-0.1672472188
-0.3318840351
-0.2915130866
-0.3069601791
-0.2573038861
-0.2802509446
-0.3831585873
-0.3479874469
-0.1175514738
-0.3903060382
-0.5198429473
-0.0525068428
-0.4488546094
-0.3001504968
-0.3707004682
-0.3716294838
-0.2514725076
-0.2906931921
-0.3399906919
-0.5099484014
-0.3632639708
-0.0160592302
-0.4720093748
-0.3997420752
-0.5604366528
-0.1260317821
-0.2813017779
-0.2236788599
-0.6692403728
-0.2400758790
-0.4224754618
-0.1814759796
-0.3775228680
-0.4967480341
-0.3611601528
-0.2333757650
-0.3460022422
-0.4821571264
-0.3962389158
-0.2651936553
-0.3844612019
-0.2694299877
-0.3589181188
-0.5239118029
-0.3353781345
-0.3707488068
-0.1177888432
-0.4388527653
-0.4379363960
-0.5590129046
-0.1649838395
-0.2877762831
-0.4589490318
-0.4193515300
-0.3072386398
-0.4042529400
-0.3761122129
-0.4340456007
-0.2000778556
-0.5633603188
-0.2457070490
-0.4800066467
-0.2013179268
-0.4830551004
-0.4838602907
-0.2474684094
-0.3437385889
-0.4498926922
-0.3901260327
-0.2755407913
-0.3725355970
-0.4459666970
-0.3695992464
-0.3309841309
-0.1413018699
-0.4539160039
-0.3791419872
-0.3402644102
-0.2426491340
-0.3540035908
-0.2503047214
-0.1786052945
-0.5483691280
-0.2790938838
-0.2053149152
-0.1400642790
-0.4023111862
-0.2576735366
-0.4453738475
-0.2795599341
-0.1691779893
-0.3108551547
-0.4137210067
-0.2709652246
-0.4728122599
-0.1460643184
-0.3286267375
-0.3175146540
-0.4195125133
-0.2119283555
-0.2397000932
-0.4651157796
-0.4404665076
-0.3488562715
-0.3017426144
-0.4578034070
-0.3924898862
-0.6203923954
-0.1814150535
-0.4034714824
-0.5618625831
-0.3856747949
-0.4993656882
-0.2727759635
-0.5517394370
-0.3275229376
-0.5658866927
-0.3784237077
-0.3732790631
-0.3632421115
-0.6966770921
-0.1865993884
-0.5220921915
-0.4468705615
-0.5047251953
-0.3336950016
-0.5102078721
-0.3901364537
-0.4428477128
-0.4598854680
-0.5359639982
-0.2956337533
-0.4747346801
-0.5432018420
-0.5567547179
-0.4429148247
-0.6467860769
-0.4818747729
-0.7494197943
-0.6191839928
-0.5763775606
-0.5492070510
-0.3967801455
-0.1442671611
-0.1819002513
0.2704629937
0.4824143549
0.6247260082
0.9255216161
0.6770777882
0.8340974438
0.1991764732
-0.0347152131
-0.4195643251
-0.5513924682
-0.5875271060
-0.5750310238
-0.5625070034
-0.3071299386
-0.4768853219
-0.6023205159
-0.5520062301
-0.3785445419
-0.5549911351
-0.4743910505
-0.4977555539
-0.4194777820
-0.5694491295
-0.6079120746
-0.4371501787
-0.4418545380
-0.4751411511
-0.6450347403
-0.4341324247
-0.5915386155
-0.4140676973
-0.5580378087
-0.5383900425
-0.5482901408
-0.6877435331
-0.2595128937
-0.5450610901
-0.5451712012
-0.7264887359
-0.5996059643
-0.3142557377
-0.4221481014
-0.6405464753
-0.6178103965
-0.5703891203
-0.5862867265
-0.3840355464
-0.5364923683
-0.5001646577
-0.6272033649
-0.5311664780
-0.5469125125
-0.5066525960
-0.5258841856
-0.3453348578
-0.6952377355
-0.5331689879
-0.6538260887
-0.3604309273
-0.3351761649
-0.8480113590
-0.4410694406
-0.5522351774
-0.4057558166
-0.6516616143
-0.5949149696
-0.4583488553
-0.4470423267
-0.5465221775
-0.6421266491
-0.6717531885
-0.4332603123
-0.2867993528
-0.6741266691
-0.6619982423
-0.5553338930
-0.4487431586
-0.5144612540
-0.5409625625
-0.5498878856
-0.4492535035
-0.6270653286
-0.4966537235
-0.6497564675
-0.3698939579
-0.3596302242
-0.7414253147
-0.5906809801
-0.5131593896
-0.4325688797
-0.5518881292
-0.5405262433
-0.7017917381
-0.3037243323
-0.5812614868
-0.6632266185
-0.4962343393
-0.5258910048
-0.5682713873
-0.4297425781
-0.6874330104
-0.4923265744
-0.5437939329
-0.4492505986
-0.6722679041
-0.4557690881
-0.5627764707
-0.4585404333
-0.7169412935
-0.3948231952
-0.5456032869
-0.5452782398
-0.5786721564
-0.3549180459
-0.7031814688
-0.4771254648
-0.3912583454
-0.6250417684
-0.4779380395
-0.3307578731
-0.5082467789
-0.4843965436
-0.5090017946
-0.4040566265
-0.5164040519
-0.2840004167
-0.3628313343
-0.6927229550
-0.3567500623
-0.3953830744
-0.4284094120
-0.4415389349
-0.5592997625
-0.3776177059
-0.3170511975
-0.5122207357
-0.4830122911
-0.4899047437
-0.3787858193
-0.5274919038
-0.3211410261
-0.3453551598
-0.6473939069
-0.4743061893
-0.3628505402
-0.5114423659
-0.4321389923
-0.3407171363
-0.3690725368
-0.6991345609
-0.3748656217
-0.3605724590
-0.5194438929
-0.4543731605
-0.3578141761
-0.4385867745
-0.5308986922
-0.4906809616
-0.4499997256
-0.4027889964
-0.3399748944
-0.4773830995
-0.3946260397
-0.5016611295
-0.5966722859
-0.2204559248
-0.3935990968
-0.5681550157
-0.3070784803
-0.4228913925
-0.5369158156
-0.1652713497
-0.5994207496
-0.3599656723
-0.4311781853
-0.4112871064
-0.2221576825
-0.4141613454
-0.5845338495
-0.4146725312
-0.3351368990
-0.3194564235
-0.2833954930
-0.4572317948
-0.5925561472
-0.3344816366
-0.3924627033
-0.4403207123
-0.5906526897
-0.2164815094
-0.6077465974
-0.4763307634
-0.7130091720
-0.3799385312
-0.4288750050
-0.5232790746
-0.5199476473
-0.6712438513
-0.5489287537
-0.4917102279
-0.4581446124
-0.5914505059
-0.6213896833
-0.6082246480
-0.4761702915
-0.5885254970
-0.4896191977
-0.5149888999
-0.7616455375
-0.5535127697
-0.5404096380
-0.3289891184
-0.4998834157
-0.8962953062
-0.5048816659
-0.3391268783
-0.7875982135
-0.4700442564
-0.3188505213
-0.7399493329
-0.6407838871
-0.6137285173
-0.4199884271
-0.7586971076
-0.5256539665
-0.6674750301
-0.7264147074
-0.7818143045
-0.8429257250
-0.8354581205
-0.4648611656
-0.8308447816
-0.5300900627
-0.2953246501
-0.1799517156
-0.1868895648
0.4640040883
0.6565371478
0.3829574186
0.8323522949
0.3454339086
0.2839394911
-0.2404166400
-0.6294101710
-0.6703505761
-0.6680168923
-0.6852746886
-0.5795180920
-0.5458966671
-0.6938164836
-0.6324678759
-0.5037811988
-0.6200659570
-0.8248455193
-0.4466191719
-0.5725634157
-0.6791195033
-0.5271754058
-0.8484974652
-0.6503761533
-0.3733467618
-0.7315867294
-0.4858015354
-0.7609255611
-0.7279057951
-0.6636601941
-0.5163143334
-0.6041579444
-0.5846833792
-0.5751972902
-0.8461857326
-0.5911248086
-0.6714334189
-0.5248284709
-0.5503714490
-0.6673110400
-0.8102850853
-0.6926250074
-0.6231492958
-0.3949609614
-0.6735410887
-0.7734944901
-0.7216918944
-0.4783321261
-0.5733815170
-0.7577865288
-0.5838628041
-0.7328944212
-0.6122704245
-0.4425941380
-0.7681897770
-0.9427332892
-0.2455120167
-0.8797868453
-0.5900309960
-0.5928010897
-0.6691899520
-0.6539135584
-0.7662551717
-0.4755056022
-0.7005333641
-0.5927340354
-0.6730134441
-0.8223161650
-0.5173639232
-0.4222787614
-0.8749429869
-0.5506144251
-0.7986421276
-0.6434669246
-0.4402469944
-0.6255002786
-0.7873591223
-0.7154951982
-0.7182925418
-0.5207644196
-0.4906964457
-0.6460596485
-0.9287387721
-0.7388385794
-0.3843372712
-0.5810304293
-0.8174395752
-0.5931913230
-0.7203981582
-0.6376589863
-0.6025026578
-0.8115911936
-0.4805672185
-0.5723298702
-0.7115771920
-0.7721415752
-0.7732980082
-0.6414729555
-0.3689560981
-0.8293197971
-0.6970010335
-0.6201095047
-0.8325023329
-0.6501609947
-0.5698765803
-0.5506605469
-0.7136330954
-0.6335985732
-0.8092834939
-0.5687279468
-0.6628255836
-0.5660406452
-0.5983837382
-0.7998352334
-0.4318755878
-0.7504612547
-0.6559055238
-0.5974850405
-0.5295514466
-0.6691854313
-0.5567762220
-0.4890230000
-0.7058199823
-0.6375277973
-0.5839372622
-0.6245437596
-0.4154073808
-0.4767334948
-0.6863619708
-0.5730478796
-0.7168500223
-0.4793770869
-0.3989304155
-0.7249225848
-0.5614743185
-0.5076265904
-0.5723972178
-0.7398246998
-0.7320967559
-0.2043278251
-0.5221856889
-0.7455940111
-0.4898170969
-0.7103464445
-0.4298335868
-0.5664666745
-0.5848334353
-0.6446190031
-0.3207221721
-0.7594693768
-0.5662785720
-0.6449330702
-0.4618754832
-0.4120812699
-0.8090039678
-0.5092750578
-0.5212380994
-0.5126252106
-0.7234470924
-0.4866084179
-0.5707622196
-0.6809335451
-0.4754651551
-0.5931064248
-0.7160921536
-0.5781595654
-0.5856042608
-0.5224445964
-0.5982018286
-0.5910426650
-0.5629335283
-0.7579566952
-0.5337758874
-0.5925187018
-0.4651090835
-0.6010231576
-0.8244263513
-0.4747476720
-0.5126534837
-0.6591727035
-0.5579712724
-0.5284128351
-0.6780972433
-0.6441587901
-0.5140106782
-0.5137676227
-0.6033691253
-0.6689618100
-0.6487146542
-0.4229580931
-0.5627180927
-0.6602999223
-0.5857892749
-0.5485329456
-0.7454383868
-0.4663259947
-0.4373715231
-0.6203405039
-0.7389758540
-0.5455218997
-0.6093358781
-0.5568119998
-0.5864517004
-0.4365700946
-0.6816143033
-0.7114236409
-0.6523608908
-0.4452975300
-0.5377269131
-0.5425583880
-0.5652697919
-0.7334718394
-0.4780553779
-0.4852968016
-0.7306740160
-0.4133192772
-0.4577945766
-0.6841771404
-0.5810456198
-0.5446243292
-0.6574767450
-0.5565308781
-0.3547187334
-0.6599219267
-0.6266028245
-0.5243212276
-0.7914393729
-0.4144360422
-0.5591206419
-0.5008192459
-0.5865281036
-0.5402271537
-0.6276019902
-0.7048230301
-0.4274208222
-0.3593397665
-0.6727748213
-0.5897525586
-0.5534357258
-0.5602545132
-0.4858193398
-0.4388840364
-0.7263444342
-0.4230084650
-0.5344419988
-0.3846466336
-0.7312839789
-0.6394150240
-0.4565451272
-0.4718696669
-0.5889577636
-0.3946584850
-0.7134652508
-0.5215965006
-0.6285470956
-0.4791738326
-0.5418074180
-0.3924109572
-0.6767877810
-0.5209329655
-0.5436770090
-0.5737353283
-0.6055103582
-0.3999332454
-0.5280543992
-0.5162223650
-0.6387852554
-0.5793634000
-0.2952415774
-0.6012780673
-0.5795605723
-0.5659913710
-0.4414298020
-0.4336305640
-0.4476909994
-0.8441764938
-0.5533448458
-0.2575065737
-0.5461020358
-0.4401988257
-0.7517913183
-0.3627792869
-0.6214253551
-0.5003875257
-0.2982008273
-0.6027624543
-0.4830036710
-0.4033984843
-0.4172948249
-0.6662306608
-0.2746217528
-0.5574991738
-0.4751172525
-0.2201082176
-0.4131431404
-0.6112822934
-0.4278345922
-0.3351507579
-0.4220324475
-0.4252568995
-0.2981473544
-0.4639046433
-0.6037152354
-0.4824023621
-0.2264814729
-0.5004438453
-0.3743299143
-0.3764689927
-0.7070612894
-0.3012893403
-0.5071439907
-0.4576333809
-0.2957348646
-0.3926217775
-0.5966635572
-0.4054088556
-0.4333291388
-0.5141600322
-0.4400223176
-0.5019939561
-0.3564723980
-0.7633262979
-0.5073274827
-0.4632334591
-0.3655766773
-0.6644202751
-0.4960555730
-0.5245309566
-0.5656350477
-0.5381700050
-0.2509732999
-0.8486058773
-0.4437235016
-0.6312158630
-0.5355651856
-0.4477151505
-0.4347975868
-0.6460893552
-0.8235911823
-0.3668487521
-0.3577052002
-0.4762461438
-0.9054971351
-0.4057668521
-0.6946662113
-0.2605556416
-0.7754339863
-0.6565587145
-0.6330284043
-0.6958502928
-0.5725348492
-0.7638500275
-0.8094892718
-0.4208677138
-0.4438317059
-0.3828339922
-0.1678822308
0.2106812136
0.2055950599
0.5083032040
0.8298339962
0.7783349089
0.6556171264
0.3698365696
0.0697796270
-0.2560469371
-0.3435920935
-0.4642791335
-0.8520121983
-0.4687910683
-0.6646388494
-0.8604745768
-0.5121199190
-0.5206237972
-0.5525484484
-0.5937221328
-0.5375818490
-0.5338362334
-0.6744468370
-0.4751314827
-0.5457703563
-0.4310628471
-0.6089144065
-0.6439022942
-0.4860049238
-0.6663764584
-0.5156434062
-0.6151590329
-0.4183561497
-0.5972160853
-0.6090077982
-0.6219363692
-0.6283179308
-0.5152910201
-0.3558632912
-0.6042660620
-0.7027435401
-0.5900545219
-0.5607844734
-0.3477011615
-0.7037701993
-0.5629923682
-0.6552190109
-0.2807592652
-0.7667765224
-0.6290985799
-0.4632674138
-0.4686595739
-0.6567005119
-0.5087706887
-0.4968363813
-0.6106492598
-0.4686403410
-0.7834580495
-0.3652019300
-0.4464835155
-0.6114432363
-0.6271448003
-0.5358589939
-0.5527294262
-0.4724152029
-0.5556680924
-0.5035159197
-0.6376827634
-0.5457472089
-0.4903080007
-0.5998961187
-0.5492503342
-0.5840821742
-0.3097938928
-0.8012475359
-0.4291662913
-0.5059998858
-0.4837372296
-0.7192963541
-0.4194866152
-0.4201198719
-0.5837574911
-0.5087130691
-0.5486858698
-0.5932322495
-0.5412228450
-0.3402148782
-0.5610992923
-0.6172480957
-0.5179885846
-0.5148434272
-0.4454374065
-0.5141970000
-0.7039368713
-0.4212872223
-0.4714851005
-0.6606718986
-0.6613378953
-0.3957935193
-0.7179903498
-0.5094459211
-0.4249537957
-0.8298818427
-0.4583504953
-0.7477385849
-0.5712241417
-0.3011098046
-0.9438231142
-0.5583612023
-0.5712526607
-0.7348852853
-0.3639762162
-0.6826600112
-0.7512686910
-0.4967787930
-0.6535928519
-0.4858679744
-0.6332667170
-0.7133950093
-0.4287135716
-0.6908561839
-0.3023695530
-0.6932763145
-0.6754925097
-0.4627118751
-0.4972016363
-0.3731865875
-0.5832654877
-0.5174606013
-0.4584208177
-0.6053893929
-0.3535219111
-0.2727106211
-0.6011712144
-0.5162389796
-0.3082209472
-0.5843979958
-0.3321547573
-0.2779727218
-0.5236198427
-0.5266761085
-0.3679574503
-0.2663064657
-0.4770163647
-0.5151089545
-0.4490305326
-0.2962791881
-0.4738909589
-0.3335854211
-0.6417301801
-0.3424317198
-0.3330398736
-0.4942586590
-0.3317742615
-0.6282113997
-0.3364116420
-0.2502241400
-0.6201924333
-0.3738434115
-0.5248644584
-0.3325232511
-0.4286650481
-0.3291542926
-0.6373969757
-0.3654683059
-0.5003757560
-0.2170787558
-0.5173092905
-0.5081162397
-0.4112819210
-0.4170693275
-0.5165724700
-0.2418988292
-0.4991965108
-0.5521117917
-0.2406407096
-0.7463899283
-0.3156031548
-0.3173878173
-0.5482195240
-0.4291660595
-0.5381649742
-0.5032639983
-0.2979541363
-0.4620939642
-0.4228008394
-0.4755109908
-0.5052106984
-0.4796221248
-0.3444774076
-0.3520345010
-0.4631872566
-0.4965148827
-0.5758897771
-0.4231681890
-0.1598015717
-0.5325070897
-0.5800692633
-0.3999802762
-0.5082991964
-0.2579965768
-0.4232735054
-0.7069905523
-0.2608998317
-0.5317803061
-0.3118654393
-0.5601464544
-0.5311570632
-0.4433470360
-0.2518437850
-0.4529914183
-0.6269678381
-0.3665118091
-0.4497065171
-0.4290810603
-0.4611917072
-0.3546898488
-0.4535864515
-0.5577518992
-0.4589358122
-0.2914819587
-0.3331391091
-0.7414641002
-0.3376161009
-0.2216512711
-0.6169204544
-0.4050199605
-0.4926991417
-0.2638096800
-0.5436311984
-0.5024628964
-0.2702855609
-0.3718021401
-0.4112498647
-0.3972015014
-0.4378157267
-0.2838468736
-0.3078038484
-0.4612521498
-0.2055459584
-0.4977603758
-0.2993349574
-0.3050695124
-0.2140493885
-0.5627870974
-0.1123690783
-0.4343698870
-0.2681917791
-0.3735580394
-0.3817874235
-0.3394452188
-0.2052099642
-0.3311042754
-0.4750231827
-0.3708177672
-0.2979844698
-0.3369729587
-0.2720521362
-0.3622901996
-0.2553858372
-0.3959691615
-0.2752998634
-0.6447030045
-0.2468551712
-0.2211731097
-0.5194300447
-0.5155019304
-0.3119408934
-0.4313885836
-0.6091853419
-0.3917586638
-0.3060009937
-0.3431141364
-0.6277381576
-0.3556693198
-0.5495932655
-0.3188664730
-0.4695946090
-0.3075961991
-0.4943384838
-0.4610545001
-0.4625892917
-0.4335908234
-0.4879144510
-0.3426054899
-0.4069399251
-0.4901614885
-0.4519322326
-0.4027516457
-0.6010672351
-0.4752512770
-0.2411858166
-0.5680959750
-0.3559410297
-0.6110796268
-0.7162700640
-0.6276292632
-0.3666395746
-0.5500280790
-0.7594303846
-0.6242312521
-0.5690012461
-0.2466039483
-0.1780340134
0.1445840047
0.3729361797
0.3152556838
0.7870648978
0.7950411700
0.8016491303
0.6901555621
0.0143560894
-0.3343269706
-0.4609314777
-0.7631975799
-0.3848365469
-0.4001679361
-0.5634023333
-0.6670176490
-0.4199526489
-0.4350120443
-0.4337649260
-0.4066200731
-0.4908191163
-0.5781777814
-0.5170303064
-0.3948249370
-0.4730517869
-0.4911436451
-0.4357434572
-0.5622010774
-0.4948513632
-0.4014031961
-0.4871923506
-0.5019941610
-0.5260655981
-0.3697032568
-0.4046996343
-0.5911923339
-0.4552709870
-0.5069123585
-0.2622885535
-0.5292305475
-0.4511234178
-0.5452017961
-0.5065012525
-0.2551697377
-0.4827906845
-0.6080846480
-0.5465101508
-0.1830415977
-0.5482047011
-0.4403749582
-0.6303663974
-0.3900753341
-0.4617660623
-0.4224290311
-0.3743546265
-0.5584199646
-0.5466367680
-0.4215031548
-0.4085178267
-0.4676376655
-0.5567962870
-0.3470088464
-0.4322961082
-0.5612164972
-0.6087681965
-0.1956567103
-0.5624720112
-0.4422656181
-0.4592129064
-0.3789117187
-0.5820840617
-0.3396767432
-0.6434817436
-0.3064833649
-0.3741242015
-0.4323806084
-0.6197559021
-0.4196168318
-0.5131696991
-0.4359923654
-0.4247530118
-0.4919559379
-0.1760140723
-0.7710992748
-0.5233645161
-0.4465988521
-0.2850466520
-0.5005078307
-0.4209506056
-0.4938744292
-0.6704742192
-0.3126461520
-0.5406864109
-0.3228663776
-0.4146961243
-0.6483694993
-0.4970709675
-0.3702639834
-0.3632842386
-0.6500616770
-0.3970373580
-0.4243200016
-0.6207120504
-0.1546962112
-0.7153691661
-0.3982411723
-0.6346659053
-0.2818471330
-0.4938293501
-0.4047390612
-0.5164669661
-0.4193013053
-0.5945194839
-0.3817658491
-0.3429427877
-0.2325884641
-0.4845709203
-0.5174489927
-0.4745701204
-0.2646339004
-0.2798813208
-0.2649235999
-0.4054724261
-0.7560668104
0.0009658309
-0.3272534343
-0.4569417273
-0.3668420925
-0.2563740501
-0.3946818846
-0.3280990536
-0.3890198472
-0.2841942207
-0.3028847748
-0.2696796503
-0.5006562505
-0.3281669017
-0.3066280976
-0.2052411263
-0.4886296949
-0.3419573257
-0.3173469470
-0.2877357287
-0.5369416507
-0.2800203557
-0.1998760296
-0.5066506667
-0.3237062025
-0.3779599196
-0.2871524865
-0.5018427061
-0.2833208194
-0.3718400311
-0.3420627227
-0.3543111289
-0.2519940836
-0.6469975971
-0.4036911100
-0.0973326311
-0.4145796653
-0.5555973715
-0.3269398994
-0.2723113017
-0.4535836002
-0.4780929217
-0.4835548402
-0.2652296411
-0.2247994508
-0.5350044295
-0.4318426202
-0.5987513768
-0.3215574363
-0.2584305715
-0.4223813185
-0.4430763288
-0.4800381356
-0.4261981646
-0.4850035925
-0.4334235501
-0.2166293617
-0.5740182483
-0.3998888169
-0.3625163078
-0.5607927721
-0.4019615928
-0.4649151894
-0.3493254224
-0.4343814915
-0.4530503417
-0.5046844505
-0.5174490037
-0.2743488969
-0.5323618834
-0.5400918153
-0.3101016225
-0.3910007583
-0.4982513082
-0.5912600513
-0.3436606641
-0.4963241246
-0.3095635130
-0.4788579326
-0.4467529562
-0.5594049369
-0.4128042101
-0.4827951099
-0.2891202334
-0.4214513676
-0.5767563247
-0.5591141835
-0.2792901942
-0.4927758030
-0.4391949075
-0.4335147429
-0.4557780644
-0.5984239531
-0.3153612266
-0.5417452928
-0.3439353298
-0.5703643731
-0.3991240695
-0.4314746995
-0.5216799306
-0.5637321829
-0.3223012815
-0.2985451213
-0.5685095568
-0.4023070807
-0.4540657566
-0.2871467957
-0.4546365900
-0.3560511979
-0.4010516743
-0.4451134803
-0.3064441552
-0.3429075955
-0.4706603895
-0.3838861466
-0.1843906000
-0.6663993103
-0.1201134332
-0.5116581975
-0.4512566142
-0.3848613759
-0.2923047091
-0.5490005463
-0.3652364206
-0.2766872005
-0.5111676021
-0.3955696499
-0.3565405135
-0.3604489559
-0.4187632199
-0.4150396159
-0.4224175073
-0.5577301093
-0.5303941029
-0.3642385632
-0.3612350654
-0.6631360531
-0.6065714288
-0.5134257378
-0.3817681270
-0.5328714906
-0.5134639583
-0.7246922196
-0.4514516890
-0.5806482634
-0.2944860698
-0.6972521674
-0.6666400313
-0.4350928831
-0.5394682027
-0.5224669143
-0.7397980879
-0.4373565957
-0.5005615805
-0.6053005027
-0.4743272082
-0.6081170761
-0.6326969403
-0.6737576575
-0.3892281936
-0.4707841986
-0.7651734814
-0.8206198956
-0.8417388512
-0.5964117122
-0.7756698492
-0.5736595836
-0.7377116609
-0.4474228051
-0.4927854444
-0.0268978501
0.2858897673
0.4707368244
0.7602878266
0.4790070939
0.5124186292
0.4144132376
-0.2731945295
-0.7229731743
-0.5328536522
-0.6238138839
-0.8242306128
-0.4956847437
-0.7832465080
-0.5977263750
-0.4985539941
-0.5297344560
-0.6581969291
-0.7906691313
-0.5532140241
-0.7474891489
-0.3876391420
-0.7267062943
-0.6175613115
-0.6902316375
-0.6629920351
-0.6353954850
-0.5785607326
-0.7334574229
-0.5696892208
-0.6596673989
-0.7430995784
-0.6357636667
-0.5727333014
-0.7421526242
-0.6193836956
-0.7210177828
-0.5310143531
-0.7537332324
-0.7611831341
-0.4319287218
-0.7175101399
-0.7767359354
-0.6976638990
-0.4748614597
-0.6591152075
-0.7187860799
-0.6701624556
-0.7137102635
-0.6913980250
-0.5587608707
-0.6032213447
-0.7098973438
-0.6055622553
-0.9501423275
-0.4627774925
-0.6539306874
-0.5308539401
-0.7967412856
-0.6868351536
-0.5923843916
-0.7437345513
-0.6568410621
-0.7236986965
-0.4171767789
-0.7575801496
-0.6401881232
-0.7862885062
-0.6148867152
-0.5477973963
-0.8625893979
-0.3744504146
-0.7666569716
-0.7559890801
-0.5841135668
-0.7700123444
-0.6035520931
-0.6143728637
-0.7236751486
-0.6494653719
-0.5533040262
-0.8994300780
-0.5960264146
-0.6734042881
-0.5260683145
-0.8670781738
-0.5959824513
-0.4547742250
-0.9766569546
-0.7096261948
-0.4874230183
-0.7608479286
-0.5700166721
-0.6458550434
-0.8913269034
-0.6487449892
-0.6189385126
-0.6531555580
-0.7729339496
-0.4757758694
-0.8853078061
-0.5569363609
-0.8113542152
-0.5582199899
-0.7263970890
-0.6697839456
-0.5820837062
-0.8115406956
-0.4207332817
-0.7994038205
-0.7264469481
-0.4716409329
-0.6966358079
-0.5059964161
-0.7061939744
-0.5931764118
-0.7884739105
-0.3244406725
-0.7853818812
-0.6440370123
-0.4965480980
-0.4832232603
-0.5327835125
-0.6859157368
-0.7199239848
-0.5805035511
-0.3625616464
-0.5837392238
-0.5121905169
-0.7221048033
-0.6448037954
-0.6897265902
-0.3923449677
-0.6051528518
-0.5703644801
-0.5105836521
-0.8964113866
-0.4274225149
-0.6133536257
-0.5295019450
-0.6769887699
-0.5042509722
-0.6031069672
-0.6421353086
-0.7257749225
-0.6082042575
-0.3497278962
-0.7023105145
-0.7104716768
-0.5125441117
-0.7621876321
-0.4189534413
-0.6939377659
-0.5539114616
-0.6262283308
-0.7330795544
-0.5925713321
-0.5619592458
-0.6281126896
-0.7220986701
-0.5558450598
-0.5990120142
-0.7986758868
-0.5807262386
-0.5403146949
-0.6144254122
-0.7465807871
-0.7049808070
-0.6540634241
-0.7175413852
-0.4441551000
-0.7785119228
-0.6273487980
-0.7803539687
-0.7280849326
-0.4969707820
-0.6987537204
-0.7685856999
-0.6177667981
-0.6293802300
-0.7151414620
-0.7150387667
-0.5634337584
-0.9113798296
-0.4187930487
-0.7488210201
-0.6340014669
-0.8177064621
-0.7544766891
-0.5913290666
-0.6635679505
-0.5443890478
-0.8272214491
-0.8097810843
-0.7432636330
-0.5141802494
-0.4955532239
-1.0720946748
-0.6381683482
-0.4332275694
-0.8748768341
-0.6567988083
-0.5791692728
-0.6914614233
-0.8913881858
-0.4838675709
-0.6798391678
-0.8015000980
-0.5635976745
-1.0052670048
-0.3448695919
-0.7718941613
-0.7624619485
-0.6902314070
-0.4715427389
-0.9457470073
-0.6499197956
-0.5222304491
-0.6799516458
-0.4788867186
-0.6960131710
-0.8208943334
-0.4675920280
-0.5478761243
-0.6694627841
-0.6003999701
-0.5764044538
-0.3747410662
-0.8390490081
-0.4391946367
-0.8095249722
-0.3538956380
-0.5366701353
-0.6865313359
-0.6608015592
-0.5510684301
-0.6749477068
-0.5563422923
-0.6992687511
-0.5285071782
-0.4069428917
-0.7145916208
-0.6359015593
-0.7364695411
-0.5618811249
-0.5437597243
-0.6176539089
-0.8479019899
-0.7187068238
-0.4969032680
-0.9086135902
-0.6890206557
-0.6309449206
-0.6968439694
-0.7832031427
-0.6285502748
-0.7109245486
-0.7974254876
-0.7201677730
-0.7776575211
-0.6718676738
-0.5876074751
-0.5812127638
-1.0355633069
-0.8731075295
-0.5702957887
-0.7449185047
-0.5381726596
-0.8238071359
-0.9492657999
-0.7482770555
-0.5853205775
-0.8466871686
-0.7883681750
-0.6777092249
-0.7632025826
-0.8986317493
-1.1371065913
-0.7734045625
-0.7730372566
-0.9832051066
-0.9395947730
-0.9660611916
-0.5197022824
-0.6032158242
-0.2172051233
-0.0869296403
0.1254473252
0.3315749950
0.6248272172
0.2245251729
-0.0122331904
-0.4439533408
-0.6959290818
-0.7503276424
-0.9833192508
-0.9697931260
-0.6991273298
-0.6965553114
-1.0784358508
-0.6651626487
-0.7245917205
-0.9733393214
-0.6893240159
-0.7291876301
-0.9746453625
-0.7348448872
-0.6439074197
-0.9886660218
-0.8502390756
-0.5720162634
-0.8403971325
-1.0338648145
-0.6030013858
-0.8150005794
-0.7835597359
-0.9662335846
-0.8035952702
-0.7676766543
-0.8932901820
-0.6035675931
-0.9953338286
-0.9357827992
-0.7441734550
-0.7941652328
-0.8472950933
-0.8430320425
-0.7717923248
-0.8186030114
-0.8885781763
-0.9330941707
-0.7870803846
-0.6312842128
-0.8963681646
-0.8221340582
-0.8468245073
-1.0451447376
-0.7889011129
-0.6018594408
-0.8900915161
-0.8729953100
-1.0168520558
-0.8905813014
-0.6317858176
-0.8483177507
-1.0224623768
-0.8137277100
-0.8729844303
-0.7758564184
-0.9615697375
-0.8079685761
-0.8415970774
-0.8124736723
-1.0232623400
-0.6289108101
-0.8289553768
-0.9852415015
-0.7875294746
-0.9411081620
-0.9577330440
-0.5748274068
-1.0188316526
-0.8713574897
-0.8743977027
-1.0150309611
-0.7597824039
-0.7352529779
-0.9929915431
-0.8535785011
-0.7837605950
-0.9531534260
-1.0159221449
-0.6288244185
-0.9345985996
-0.8501303547
-0.8291124525
-1.1440868184
-0.7535799788
-0.9055731554
-0.8556584279
-0.8940731493
-0.8452805364
-1.0057683423
-0.9356921483
-0.8961082657
-0.7588639719
-0.9799419025
-0.8636958030
-0.8053130371
-1.0481202195
-0.9798926125
-0.7462337160
-0.7318072174
-0.9211324876
-1.0215352242
-0.8009567979
-0.9218740983
-0.6588736504
-0.9399951201
-0.8007405209
-0.8633348417
-0.9872441639
-0.5118248890
-0.9358040456
-0.9554008228
-0.7431117734
-0.8144182033
-0.7139684650
-0.8043542567
-0.9523571599
-0.7000678570
-0.8992854165
-0.7387552917
-0.8501484773
-0.7676798139
-0.7255295277
-0.9594426132
-0.8658360597
-0.8003123432
-0.6845701510
-0.8462061702
-0.9129075494
-0.9495142443
-0.6472174049
-0.9627191685
-0.7746773508
-0.9607188117
-0.7120768948
-0.8876389183
-0.7455507622
-1.0339715960
-0.8109719283
-0.8473903659
-0.6874912223
-1.0086365795
-0.8067611128
-0.8915219272
-0.8730191553
-0.8315715285
-0.7764402663
-0.8408996992
-1.0245414578
-0.7781359911
-0.8748578345
-0.8104983645
-1.0855302662
-0.6249110121
-0.9925730203
-0.9805659280
-0.8628733981
-0.8137926914
-0.8950787282
-0.7842246412
-1.0495707893
-0.9533718737
-0.8340215628
-0.9331651941
-0.6386378795
-0.9841816582
-1.1043903355
-0.9592437793
-0.7427604780
-0.8153920009
-0.8381146582
-0.9764878411
-1.0923475777
-0.9071134672
-0.7938426777
-0.8216444740
-0.8554939776
-1.0659235731
-0.9399095088
-0.8950757510
-0.7251392841
-1.0178864087
-0.8808154837
-0.8825818516
-0.9386709136
-0.9755029347
-0.7942392705
-1.0038028415
-0.7752875813
-0.9741833384
-0.9684629686
-0.8974629060
-0.8329136483
-0.8008022623
-1.2790889616
-0.7898494441
-0.8570593600
-0.8021136429
-0.9387608792
-1.0257975269
-0.9824289971
-0.7427968739
-1.0112491327
-0.6700869269
-0.8477975705
-0.8994955986
-1.0279045454
-0.8559558085
-0.7661698635
-0.6543013777
-0.9619350011
-0.8176404038
-0.9772593525
-0.7618527045
-0.7786664043
-0.8680463719
-0.8580595928
-0.9239404269
-0.7865054468
-0.9730135636
-0.7940342492
-0.9907993135
-0.7238834338
-0.9967962718
-0.9532334149
-0.8348129523
-0.7485324586
-0.9577180208
-0.9340546759
-0.9700770420
-1.0613670722
-0.8627123216
-0.9139851924
-0.9488292225
-1.0817271962
-1.0766212672
-0.9559356798
-0.9119844028
-0.9990197107
-0.9464359589
-1.0745803153
-0.9432734819
-1.0653797777
-0.9879517900
-1.0665422395
-0.9630617557
-1.0661191627
-0.8735753068
-1.2811823571
-0.9598519146
-1.0576797292
-0.9149895550
-1.2091406508
-0.9647463508
-1.0653836165
-1.0324199759
-1.0853081328
-0.9592267985
-1.1927055532
-1.0404706807
-1.3316695905
-0.8016960953
-1.3660218657
-1.1114971000
-1.4872162095
-1.0936964741
-1.1038886816
-0.8430402294
-0.8550037668
-0.7299595445
-0.4339144803
-0.0882196408
0.2714085716
0.0379595530
-0.1699799845
-0.1561329432
-0.7674710336
-1.0643849403
-0.9492939756
-1.2806376972
-1.2414315261
-1.1986336654
-1.2139910184
-0.8204988875
-1.2503455930
-1.1577667224
-1.2089601174
-0.9743776085
-1.2689420270
-1.0325502498
-1.0846896033
-1.1956663180
-1.1391820889
-1.2081529062
-1.2196130467
-0.8757741249
-1.0538141334
-1.3064581508
-1.1500772007
-1.1882778033
-1.0956325956
-1.1426474786
-0.9601637079
-1.1407505388
-1.3679143479
-1.1248793397
-1.1024719277
-1.1991894448
-1.0262429693
-1.1077984300
-1.3887093207
-1.1684763735
-1.0926727039
-1.1880749053
-1.1344712503
-1.0378280495
-1.4905680437
-1.1723459537
-0.9465520610
-1.2435409690
-1.1478231038
-1.2891352621
-1.1363980088
-1.1647741208
-1.2115661760
-1.1212169137
-1.1290772790
-1.3201075647
-1.1581373546
-1.2464502532
-1.1409361833
-1.1395611826
-1.2164057651
-1.2496410704
-1.1041632122
-1.2697454722
-1.2706662575
-1.1243602141
-1.1849551845
-1.1480491864
-1.1971295656
-1.3256986525
-1.1077912904
-1.3473061463
-1.0334306220
-1.1271368906
-1.2024507454
-1.3394963182
-1.1150937885
-1.3627449565
-0.9463085202
-1.2788677615
-1.2555836126
-1.1799053585
-1.2363641481
-1.1681424671
-1.2338164453
-1.3652841272
-1.1119560014
-1.2785040695
-1.2719380874
-1.1913787272
-1.3356800608
-1.1417256656
-1.4616002717
-1.2954750972
-1.0510751184
-1.3696957772
-1.3096347703
-1.2807196524
-1.1609031185
-1.5496908833
-1.1395276342
-1.1881105754
-1.2185717044
-1.2992670125
-1.3902691032
-1.3455951444
-1.1626420293
-1.2505609993
-1.1283947689
-1.2153334255
-1.2875299566
-1.4366493470
-1.1407913749
-1.1045410583
-1.0791412734
-1.2227383262
-1.1866636401
-1.3526953351
-1.1883047406
-1.0648050955
-1.1009051295
-1.1210719778
-1.1337641414
-1.3079952428
-1.1121881724
-1.2860508438
-0.9978248541
-1.0673510341
-1.2442168522
-1.0027680392
-1.3700158657
-1.2693146640
-1.0973742975
-0.9430864149
-1.0266812735
-1.3888069679
-1.2760720244
-1.0819107809
-1.1397564982
-1.0825666482
-1.2114788833
-1.1857274159
-1.1672613602
-1.2703644867
-1.1866134187
-1.1167514899
-1.1994085412
-1.1947678773
-1.2112588790
-1.1495133566
-1.3456209365
-1.1315504177
-1.0769436902
-1.3068626986
-1.2359962138
-1.1638128204
-1.1925842767
-1.2701839878
-1.1793262170
-1.1732147349
-1.1793811558
-1.4588126738
-1.0600721269
-1.1253921361
-1.3440767950
-1.1993071817
-1.0841507207
-1.5119152724
-1.0905300246
-1.0846234791
-1.3553963468
-1.2775912546
-1.2352430176
-1.2002402871
-1.2183472363
-1.3024037131
-1.2296993480
-1.4546059807
-1.0419547374
-1.1617451620
-1.3434969407
-1.3538926741
-1.3647215727
-1.2072246693
-0.9824888414
-1.4356327628
-1.2394621408
-1.3010970231
-1.3937438205
-1.1489557617
-1.1073114026
-1.3426932106
-1.4293808256
-1.2436278932
-1.0793273315
-1.3690913858
-1.4453752572
-1.0297188107
-1.4794749568
-1.2751579179
-1.2566402918
-1.2088360822
-1.4039551455
-1.3036276896
-1.2129241633
-1.4236305937
-1.1789141156
-1.2448510483
-1.3758011181
-1.2333197627
-1.5229146945
-1.1485281589
-1.1199992005
-1.4808324736
-1.2511367412
-1.4331975747
-1.2216959585
-1.2120151045
-1.3601839096
-1.2770015320
-1.2904298029
-1.4130935153
-1.1864553224
-1.2389598431
-1.3205892609
-1.2140196746
-1.3898360288
-1.2189179610
-1.1994311904
-1.3363579447
-1.1442527059
-1.2898634082
-1.3049546780
-1.2443883438
-1.2022242617
-1.1213524821
-1.3730436225
-1.1900844660
-1.3463292759
-1.1517219054
-1.2583739940
-1.2700711473
-1.2223111817
-1.2773154638
-1.4520971656
-1.1588175352
-1.0820670753
-1.4934461601
-1.1026681663
-1.4646272489
-1.3069355703
-1.1750462700
-1.1509651949
-1.4148571333
-1.2763281342
-1.1601757453
-1.4711502143
-1.4049045924
-1.2380580784
-1.3416885308
-1.5172162061
-1.2311864621
-1.4550650529
-1.3632458002
-1.5515967613
-1.3939610642
-1.1293286614
-1.5842064392
-1.4600777249
-1.2638995669
-1.4003246526
-1.4304262235
-1.4776890102
-1.4173183094
-1.2211354040
-1.4390329543
-1.4104572514
-1.5872080465
-1.2898874602
-1.4784640604
-1.5096006168
-1.3092131294
-1.3526351634
-1.3868742176
-1.6697371865
-1.4981885821
-1.2104266562
-1.5135776522
-1.3724480410
-1.3877900683
-1.7380798784
-1.7245630803
-1.3275305813
-1.5565207504
-1.5867410514
-1.8114852553
-1.3617307828
-1.5011257440
-1.4342074274
-1.0388961126
-0.7730961898
-0.5199957931
-0.5180370569
-0.1358402904
-0.3480074274
-0.3359192058
-0.2711258296
-1.1590639630
-1.4611061314
-1.4729323350
-1.5354085838
-1.5851921079
-1.5308057641
-1.5215494943
-1.3942752872
-1.5694996725
-1.5067725911
-1.4522419143
-1.6059304884
-1.3877727831
-1.4403635727
-1.7321016924
-1.4479925846
-1.5459743330
-1.2986037155
-1.5778456298
-1.6305533425
-1.6305787520
-1.3036020775
-1.5012906705
-1.6199828000
-1.4500628345
-1.6190716281
-1.3747955761
-1.5973728505
-1.6835365535
-1.3184886357
-1.5270108362
-1.3393114521
-1.7559769707
-1.6189499138
-1.3926540738
-1.3963588448
-1.5975999382
-1.5593510536
-1.3920464607
-1.5516759938
-1.6901563523
-1.5063383039
-1.4024440808
-1.3714802269
-1.7067950301
-1.6740379576
-1.4113061963
-1.4482815853
-1.6425231113
-1.4400550180
-1.5184596840
-1.6375707494
-1.5934116138
-1.4408548115
-1.5275951180
-1.5061416704
-1.6150408795
-1.6146158312
-1.4898050957
-1.4328891936
-1.5707130032
-1.6869359453
-1.5626118756
-1.4874049655
-1.5308957689
-1.5200270912
-1.5503519106
-1.6932712653
-1.6408013264
-1.5230428434
-1.3482071259
-1.5965274250
-1.6715017521
-1.7201245865
-1.5145661198
-1.4580352116
-1.4908268169
-1.5909885452
-1.6465119326
-1.6566296124
-1.6003671043
-1.3842363707
-1.7094450135
-1.4868362906
-1.6475469937
-1.6921339703
-1.5260865380
-1.6219031116
-1.6343677342
-1.5226486018
-1.6080769595
-1.6854328715
-1.6236270746
-1.6929014743
-1.5605086047
-1.4618051637
-1.7631480092
-1.6258636706
-1.6701388339
-1.5693617828
-1.5249408657
-1.7441093555
-1.5834780366
-1.6088667980
-1.4633938146
-1.4377867341
-1.9041652236
-1.4872257949
-1.3773042313
-1.5756450730
-1.4674365754
-1.6917004083
-1.4719209488
-1.6002314338
-1.4429262270
-1.4752883968
-1.6799696822
-1.4157439387
-1.3640189462
-1.7043483706
-1.6371860791
-1.4906387223
-1.3583990794
-1.3978216854
-1.6503501419
-1.6139118297
-1.5770179414
-1.3842824711
-1.5042069916
-1.5652363411
-1.4818388952
-1.4596649817
-1.7428308969
-1.4826875847
-1.6211080959
-1.2184825963
-1.8084340488
-1.2758426664
-1.7602906233
-1.4458289094
-1.6763449590
-1.6188999795
-1.2336039235
-1.4639863039
-1.9322960385
-1.5070843029
-1.6099798109
-1.3881804195
-1.5728553003
-1.6515583454
-1.5267811731
-1.6438929182
-1.4905966983
-1.6317968078
-1.6843313834
-1.4883936098
-1.5656396781
-1.5627300608
-1.6976043150
-1.5831802301
-1.6329695868
-1.5912284291
-1.5051793385
-1.6370095699
-1.6597610191
-1.6295744916
-1.5695423871
-1.5955878321
-1.6571989397
-1.6771811181
-1.7317790803
-1.4559649629
-1.5998520290
-1.6557386382
-1.8723970776
-1.6783311813
-1.4804346659
-1.5698131853
-1.6805280742
-1.8212822686
-1.6003232540
-1.7743099309
-1.5816509979
-1.5656165529
-1.7769973124
-1.6778999327
-1.5837511078
-1.8544277996
-1.5896711581
-1.6657960682
-1.6404828979
-1.6990479972
-1.6828053245
-1.7273514036
-1.7457842946
-1.5992609562
-1.7271442973
-1.7673204926
-1.6186067699
-1.6846701239
-1.6745820868
-2.0513221222
-1.4757450477
-1.6835394957
-1.6121516158
-1.8382545579
-1.8454688297
-1.6885595094
-1.6385542193
-1.6537481492
-1.8145184389
-1.7027991838
-1.6407906379
-1.9582396529
-1.6430896068
-1.6840806678
-1.6312917550
-1.8025607565
-1.7729281764
-1.8682365655
-1.7015143208
-1.6597502030
-1.6851561656
-1.7129368145
-1.7831995580
-1.8654400135
-1.6049033385
-1.7362694679
-1.4812971970
-1.8739624972
-1.7523434446
-1.7463676800
-1.6598458022
-1.6260880743
-1.7813696898
-1.6102513237
-1.7271167420
-1.6679559394
-1.8090643522
-1.6234552867
-1.7462740777
-1.7068625222
-1.6385623619
-1.7823369678
-1.7571625969
-1.7785287586
-1.6076941377
-1.7883736448
-1.6851566048
-1.7623907897
-1.6812618183
-1.7282767612
-1.7230541313
-1.8179428682
-1.7681686056
-1.8556368168
-1.6675535036
-1.8302425692
-2.0225093162
-1.8681783491
-1.7778663500
-1.9356953801
-1.7611744910
-1.7213021955
-2.1430704235
-1.9754461271
-1.9330929673
-1.6542221425
-1.8902076292
-1.8844635297
-2.0172211820
-1.9795611105
-2.0443575609
-1.6585838819
-1.9072146952
-1.9065720098
-1.9746840128
-2.1059010689
-1.8352635823
-1.8834060761
-1.8739093636
-2.0332235786
-1.9367337799
-1.7858241015
-2.1725255121
-1.9515581671
-2.1889056757
-1.8060219971
-2.1913216640
-1.9714766275
-2.1672533922
-2.1319116529
-2.1860901134
-2.0732964269
-2.2730315391
-2.1686195236
-2.0687467824
-1.9745176402
-1.9353904159
-1.8576347591
-1.6470514043
-1.2106058201
-1.1281325098
-0.8420775310
-0.8538715076
-0.8132800628
-0.9379239776
-1.4005787265
-1.5104705447
-1.6533082440
-2.3617913524
-2.0763806415
-2.2619451708
-2.0088347884
-2.0156776189
-2.0185023100
-2.0152556111
-2.0249314070
-2.1248178774
-2.1513236726
-2.0066940213
-2.0427387687
-2.1161733517
-1.8977440818
-2.0503940619
-2.2620994428
-2.1402808121
-1.9400713339
-2.0517776986
-2.0873205044
-2.2715833995
-1.7846698353
-2.1491712103
-2.2564022599
-2.0851245211
-2.0934617427
-2.0720085071
-1.8433517921
-2.2949287552
-2.1498591824
-2.0459273065
-2.2195885342
-2.1145494285
-1.9135340408
-1.9868184511
-2.4341452423
-1.9907975618
-2.2439543189
-1.9876964259
-2.1621602355
-2.1458092696
-2.1248199176
-2.0966321963
-2.2289312128
-2.1428626339
-2.0695307945
-2.1444122580
-2.1208238627
-2.1566759128
-2.1645272841
-2.0256423613
-2.3121403648
-2.0700646379
-2.0433469246
-2.3491413269
-2.1737403164
-1.9630909670
-2.2193961648
-2.2765934874
-2.0196121054
-2.3176354927
-2.2347811548
-2.0602390358
-1.9969705514
-2.3084556961
-2.3864856962
-2.0704677686
-2.1871302650
-2.0991705093
-2.1362308058
-2.2491791780
-2.2177476409
-2.2654348771
-2.2213758790
-2.1278794659
-2.1409199626
-2.0969457986
-2.4439387873
-2.1628435345
-2.2114723723
-1.9535545494
-2.4236179329
-2.0673811506
-2.3665430418
-2.2923469092
-1.9639791291
-2.2421236052
-2.3434296151
-2.3177463959
-2.1846141323
-2.1383105312
-2.3112348666
-2.1779180020
-2.2125194868
-2.3200547338
-2.1481208713
-2.3952735521
-2.1533084394
-2.1702489212
-2.2102942764
-2.2274568311
-2.4634124139
-2.0031804648
-2.2426588884
-2.2425142165
-2.0972779248
-2.2396133474
-2.2288034814
-2.3113721480
-1.9414419229
-2.2671056462
-2.1154110050
-2.2804496411
-2.1537713952
-2.1038244507
-2.1466545718
-2.1708239682
-2.1601064702
-2.2137326833
-2.0946206208
-2.2448543986
-2.2531441006
-2.0435658878
-2.1396369025
-2.0890617053
-2.3393677856
-2.3722094998
-2.0092601922
-1.8617110661
-2.4565206314
-2.0724585406
-2.3569648594
-1.9925182145
-2.1232962019
-2.4294128994
-2.1130026534
-2.0335997391
-2.3220023583
-2.3188519688
-2.0781059771
-2.2670538916
-2.2160730957
-2.2738860087
-2.0792472150
-2.1765956417
-2.3111109937
-2.3135946982
-2.1109525065
-2.4141610488
-2.0218215245
-2.2204060114
-2.2667707706
-2.3900672102
-2.2771400504
-2.0569436491
-2.2505606875
-2.2912651831
-2.2824176073
-2.1943759459
-2.2612361247
-2.2985381594
-2.3634379682
-2.0653637649
-2.2485056109
-2.3689220573
-2.3473682864
-2.3121056660
-2.1210576340
-2.2653746076
-2.3126478691
-2.3923548048
-2.3061507622
-2.2256445297
-2.2473451156
-2.2283965462
-2.5671331115
-2.0893322590
-2.2789511827
-2.2774077809
-2.4511641914
-2.2028866303
-2.2438227813
-2.3049726153
-2.2608727014
-2.3557539963
-2.4425278322
-2.1773321031
-2.1733112877
-2.3448075415
-2.4217545411
-2.2875383435
-2.2259893694
-2.3812810068
-2.2425409973
-2.2348166813
-2.3412241751
-2.4186902602
-2.4189215389
-2.2109211396
-2.1374943197
-2.3420150379
-2.4756330987
-2.4379854451
-2.1268987818
-2.2403486728
-2.3370957289
-2.3229767769
-2.3864012374
-2.3727603257
-2.2528360350
-2.0144153927
-2.5367903933
-2.3366033609
-2.2110722873
-2.1152268522
-2.3994584510
-2.2123269603
-2.2287070314
-2.2409686677
-2.4053959601
-2.0988902626
-2.1938138393
-2.2930896681
-2.3735021075
-2.0404970352
-2.2046500810
-2.2443546206
-2.1767672707
-2.3994024714
-2.2838483329
-2.0625546982
-2.2267078877
-2.1384434138
-2.4696197530
-2.2472925217
-2.1596268084
-2.2919575308
-2.2172830601
-2.2217977646
-2.2582775853
-2.1555253763
-2.3044938097
-2.4038678667
-2.1265736395
-2.0724358709
-2.4423045744
-2.2774420768
-2.5056076919
-2.0916892170
-2.2954367652
-2.3341766157
-2.4606060018
-2.2447007685
-2.4198364591
-2.2995600096
-2.3844751878
-2.3571338376
-2.3481303186
-2.4517606394
-2.2356228202
-2.3269632032
-2.5025285597
-2.4080274435
-2.3259509300
-2.3064538433
-2.3829846295
-2.3809206142
-2.3257133491
-2.5084981454
-2.3597993750
-2.3861542674
-2.2692288435
-2.3392484647
-2.4524276153
-2.4957677750
-2.3994454116
-2.4646676139
-2.4436549981
-2.3838754304
-2.7591541903
-2.4589283288
-2.8299065395
-2.2752954890
-2.4371292094
-2.2202334349
-2.2620487124
-1.9215505696
-1.6955763521
-1.2993268535
-1.4415542668
-1.1103191099
-1.4727446072
-1.4481354873
-1.9096131519
-2.3273693104
-2.4643239994
-2.4165188809
-2.4100241949
-2.6062272213
-2.5482191124
-2.3707786859
-2.4228817512
-2.5102872086
-2.3044513861
-2.6975515358
-2.3394093146
-2.2989788899
-2.4990819834
-2.4306953188
-2.6315079449
-2.3247205341
-2.3964057790
-2.4304486185
-2.4144543668
-2.5354948311
-2.3117286369
-2.6711102892
-2.2181912228
-2.3938943444
-2.6151675667
-2.4471360657
-2.2843689859
-2.5703006963
-2.4417334185
-2.3592493454
-2.5560275404
-2.3303826799
-2.4654870969
-2.4017618459
-2.3737315892
-2.7083532218
-2.2843153822
-2.2585529210
-2.4588158950
-2.7078885416
-2.2705908579
-2.5104713495
-2.4240931254
-2.4089292564
-2.4878162132
-2.4791969359
-2.3865842540
-2.4993377704
-2.5562063045
-2.2715432919
-2.6122397708
-2.2840179910
-2.5073936958
-2.6618178505
-2.2486244643
-2.5097253188
-2.4421751378
-2.4653227243
-2.4165137923
-2.3580785804
-2.6479255424
-2.3275102643
-2.3926825908
-2.5824507600
-2.2951439678
-2.4771362777
-2.5119257009
-2.4600670987
-2.3830709943
-2.4406286769
-2.3775502042
-2.6444714040
-2.2643640518
-2.4265716189
-2.4903561323
-2.6441506615
-2.1236712318
-2.5212817656
-2.5224947852
-2.3313016853
-2.5811727111
-2.3239315011
-2.3496581750
-2.6040602609
-2.4883037438
-2.3738551711
-2.3615165614
-2.4935481322
-2.5395850983
-2.5159656911
-2.5244122600
-2.1577769616
-2.6914031191
-2.5356779033
-2.3606331032
-2.4485309552
-2.4758977137
-2.4840233542
-2.6124927437
-2.3825504065
-2.3057559398
-2.5889373421
-2.4313925324
-2.5510181814
-2.4505763585
-2.2893537038
-2.4212960738
-2.4130293084
-2.4783476224
-2.2959514833
-2.5368104679
-2.3649344325
-2.2478895120
-2.4064498967
-2.3019162626
-2.4093158811
-2.4771839956
-2.1076049600
-2.4158617013
-2.3661301178
-2.3040162262
-2.4139959979
-2.3190140836
-2.2645886803
-2.3148905719
-2.4819354528
-2.3492252375
-2.2079809233
-2.4066137720
-2.1458497541
-2.5313700976
-2.3169563346
-2.3493230434
-2.1697161392
-2.3489398977
-2.3748588527
-2.3213808725
-2.4108253825
-2.2503145389
-2.2959469598
-2.3279686545
-2.4829900908
-2.1711427001
-2.3810116982
-2.3444252775
-2.4137744709
-2.2513074734
-2.2458505520
-2.3480186390
-2.3935572589
-2.3318801436
-2.3869875074
-2.1086495733
-2.3916673159
-2.2788813470
-2.4280376510
-2.2411033123
-2.4281291652
-2.3141086572
-2.2600583293
-2.2319396720
-2.5032694224
-2.4037853592
-2.3068047258
-2.2699485354
-2.3814695613
-2.2084070438
-2.4789612233
-2.4053955747
-2.2337082959
-2.3537703683
-2.2672109178
-2.3359700979
-2.4099899298
-2.4291780048
-2.1612330348
-2.3701994579
-2.2323313863
-2.4161495876
-2.4042658092
-2.3569497071
-2.2831755416
-2.2631914531
-2.2389457229
-2.4624939062
-2.4464013131
-2.2467511859
-2.4276893390
-2.0429749549
-2.4900306252
-2.5005578489
-2.2044595415
-2.1161878860
-2.5769055593
-2.3672291051
-2.2015226288
-2.3642133030
-1.9635833242
-2.6655311064
-2.3840134540
-2.3315418722
-2.0335824288
-2.3577434668
-2.4835477459
-2.3046424760
-2.2734395186
-2.1985822936
-2.4206228690
-2.4681145548
-2.0914279217
-2.2984738263
-2.4495748529
-2.1092846244
-2.3948169986
-2.4324695292
-2.2464040797
-2.2626984262
-2.1184744489
-2.4420092229
-2.2590471754
-2.1535527468
-2.3715258740
-2.3694860367
-2.0571154744
-2.1696005975
-2.3337555168
-2.0461789055
-2.3294615109
-2.5260430880
-1.9136123139
-1.9809494932
-2.3059910976
-2.2369697839
-2.3499553682
-2.1749926879
-2.2265944643
-2.0088492746
-2.3125238383
-2.2723104868
-2.2375445200
-2.3305875975
-2.0840166188
-2.1416599163
-2.3999851126
-2.1426798987
-2.1508822306
-2.2818092359
-2.3843264216
-2.2020168046
-2.2364916604
-2.4170962873
-2.1928483275
-2.2706928421
-2.4222996492
-2.3040384663
-2.1375388717
-2.4314828672
-2.3305386987
-2.2858756982
-2.3114248329
-2.1414173375
-2.4171206986
-2.5307949171
-2.0437415167
-2.3736990654
-2.2959899957
-2.3732064941
-2.2669256891
-2.2225564555
-2.4393683975
-2.3102370737
-2.2527521956
-2.2491964846
-2.3150303792
-2.3005505103
-2.3154204201
-2.4454168446
-2.1528745807
-2.1421802712
-2.6447934898
-2.3009936712
-2.3620778018
-2.3570712944
-2.5265876472
-2.4361600516
-2.3795483139
-2.4339574578
-2.2121300437
-1.9822707756
-2.1105020049
-1.6124921284
-1.5000981767
-1.2285595075
-0.9758650454
-1.1811820695
-1.1287326432
-1.4123335344
-1.7745287458
-1.9621173986
-2.4778916790
-2.2482353526
-2.3048769259
-2.4501080746
-2.4702831110
-2.1283428353
-2.1622616238
-2.4015171327
-2.5028358536
-2.0565943360
-2.3874050782
-2.2331038427
-2.3113307215
-2.1201099502
-2.3890867581
-2.2922734643
-2.2824422444
-2.2056464400
-2.3336249802
-2.1913847595
-2.2632079452
-2.2707437429
-2.4380233589
-2.1863508524
-2.2311402372
-2.2824848046
-2.1339301059
-2.4558761469
-2.2374438015
-2.4728054160
-1.9556196132
-2.2690475182
-2.4030244339
-2.3138121443
-2.2090830294
-2.1701385317
-2.3144823322
-2.2915414507
-2.1703257456
-2.3014606445
-2.2790176511
-2.1897119343
-2.2093781586
-2.2182573088
-2.3559331339
-2.1422974847
-2.2919551494
-2.1731283910
-2.1478083551
-2.2837893158
-2.3298737000
-2.2123957109
-2.0434259688
-2.1836740953
-2.4084582685
-2.2157501369
-2.1451865947
-2.1934384841
-2.2137636216
-2.3142910445
-2.1520560046
-2.1983674131
-2.2237257680
-2.1767444872
-2.2491888960
-2.3052647087
-2.0203894471
-2.2824168080
-2.2319443865
-2.2118788917
-2.1101674397
-2.1912301806
-2.3415656110
-2.1035458297
-2.0695644874
-2.2558733134
-2.2414107389
-2.1220247233
-2.1363588854
-2.3053746234
-1.9593553925
-2.4271747257
-2.0984453593
-2.1287065169
-2.1473684999
-2.2564061389
-2.3253687515
-1.9791303888
-2.2516106512
-2.3182624052
-1.9960542889
-2.3236110782
-2.3303278814
-2.0803169360
-2.2514503257
-2.1383363041
-2.1215258321
-2.3799410852
-2.1936317981
-2.0766527347
-2.1713305796
-2.2022200307
-2.1515269172
-2.0276008786
-2.2337334491
-2.0805967482
-2.1780979247
-2.0300335648
-2.1132716869
-2.0117250412
-2.0600475342
-2.0758035007
-2.1823893730
-1.9843889429
-2.1961611550
-1.8699588481
-1.8802621142
-2.1302736592
-2.2113338284
-1.9233324023
-1.9954948328
-2.1759040367
-1.6801973927
-1.9647479910
-2.2149275850
-2.0657595456
-2.0344271658
-1.9329243534
-1.7141675011
-2.0483640754
-2.1907304673
-2.0600025149
-2.0017365972
-1.6635542926
-2.1714456656
-2.0050188002
-1.8690006053
-2.1887609510
-2.0374970728
-1.7056420985
-2.0523391513
-2.1388321786
-1.8545419366
-2.0368103005
-1.9998122658
-1.9830664041
-1.7855489602
-2.1110326153
-2.1050046141
-1.8258845903
-1.8869935724
-2.0467340347
-2.0696522928
-1.9776654907
-1.8839447050
-1.9078686107
-1.8655196061
-2.2773400953
-1.9805994429
-1.7420642670
-1.9162932423
-1.9222473875
-2.2339500162
-1.9396353350
-1.9066979840
-1.7269861586
-2.1498487828
-1.8871099807
-1.9915833421
-1.9555692828
-1.8178418289
-1.9435729239
-1.9354308886
-2.1042111554
-1.7549398674
-1.9095658373
-1.9368649131
-1.9363441525
-2.0635760754
-1.9998581638
-1.6803352293
-1.8835579976
-1.9473225925
-2.1000898271
-2.0261801009
-1.8025850831
-1.7160531111
-1.9350116642
-1.9926813051
-1.9836815114
-1.9122109169
-1.8568575235
-1.9754602039
-1.6799014556
-1.9932171137
-1.7665132669
-2.1528762173
-2.0244979207
-1.5685747970
-1.8212933543
-1.9621677627
-1.9208833748
-1.8803556262
-1.9430552517
-1.8608441176
-1.6662968998
-1.8578205617
-1.9741720114
-2.0093261083
-1.7338323919
-1.9100757553
-1.7595167278
-1.7373354069
-1.9642162695
-1.9251118390
-1.7554271643
-1.7463761245
-1.8918353843
-1.4535567790
-1.9295873948
-1.9575046498
-1.7462816601
-1.6679144790
-1.6830024521
-1.7180714315
-1.6282772754
-1.9629670365
-1.6315347496
-1.7611988947
-1.5606612998
-1.6556293836
-1.8408894804
-1.5878675127
-1.8602716837
-1.7187268396
-1.6308824887
-1.6504053527
-1.7608378048
-1.7306580375
-1.7330648319
-1.5187978443
-1.8717500509
-1.7468310740
-1.5239446177
-1.7765524384
-1.8569267701
-1.6865717607
-1.7717312220
-1.8463952055
-1.7563877561
-1.7132149824
-1.7089878720
-1.8746371229
-1.8542596045
-1.6895919150
-1.7449742998
-1.7477986382
-1.8156639506
-1.6814055297
-1.7617063740
-1.8524935389
-1.7461087408
-1.7080679700
-1.7027732464
-1.8633338076
-1.7456512688
-1.8789024993
-1.6346571822
-1.5504082176
-2.0546815330
-1.7833363907
-1.5988166811
-1.7303562774
-1.8627195860
-1.6887102125
-1.8847900951
-1.5611352878
-1.9755566992
-1.8634087654
-1.7970235701
-1.8935960116
-1.8104353655
-2.0960666374
-1.7005662725
-1.7081249955
-1.4739711334
-1.4073546569
-1.0061266369
-0.9613658961
-0.4687283552
-0.5926248177
-0.3077017463
-0.7759630477
-0.9583682767
-1.3113578958
-1.7999212186
-1.6943988560
-1.8550143836
-1.7493349682
-1.8491611474
-1.6940696343
-1.6479384598
-1.7783982155
-1.7411281952
-1.6810330285
-1.8715799137
-1.6916693029
-1.7051542417
-1.7626372617
-1.6347817854
-1.8777786158
-1.7846071216
-1.6275156270
-1.7297026144
-1.6017083741
-2.0085290413
-1.6342859748
-1.7073315183
-1.6843732713
-1.7454785662
-1.7108248700
-1.7813220992
-1.7352805971
-1.8293527584
-1.5291515171
-1.6912728007
-1.9178647396
-1.7491559156
-1.6457902011
-1.7521718698
-1.7058849386
-1.7331800805
-1.6898175041
-1.8872981365
-1.5703186442
-1.8779309368
-1.5845630776
-1.7976703334
-1.7232844234
-1.7053411250
-1.7168337305
-1.8356856506
-1.6325106294
-1.7157129238
-1.5587150930
-1.8038141768
-1.9156846779
-1.5933321534
-1.6953827042
-1.5264820473
-1.9196094225
-1.8843119065
-1.4979973356
-1.6341415208
-1.8337535655
-1.8762714394
-1.5394443792
-1.6894438116
-1.7191262451
-1.6831243135
-1.9134776000
-1.6066134371
-1.6727489321
-1.7884413279
-1.6706658581
-1.6222767387
-1.6278811246
-2.0290301299
-1.5415256608
-1.8258457441
-1.3656879646
-1.7435212001
-1.8959442507
-1.7232646183
-1.8069684766
-1.4649919794
-1.6044639901
-1.9562956934
-1.6681108367
-1.6898101427
-1.9242656419
-1.3733546060
-1.9643541187
-1.6301029677
-1.7085467998
-1.7423857308
-1.7934727742
-1.6794066633
-1.5957271923
-1.7809051903
-1.7611013995
-1.5722042701
-1.8752486898
-1.6457325136
-1.5488722799
-1.6826277065
-1.8007293190
-1.5158188542
-1.6852913276
-1.6409357559
-1.7200288391
-1.4291070406
-1.5527223911
-1.7991024003
-1.6450650618
-1.5452556382
-1.5456373468
-1.5398003119
-1.7618910147
-1.5360097274
-1.5665381835
-1.6969015602
-1.5828690623
-1.5596757724
-1.6852031001
-1.4768256174
-1.6984404078
-1.5646944948
-1.6636236801
-1.5798489106
-1.6267846660
-1.6236697496
-1.5326366595
-1.4982519123
-1.7498885281
-1.5371151286
-1.7332515487
-1.5416488955
-1.6211612523
-1.4022241505
-1.6454011184
-1.7661962112
-1.7833957989
-1.4380674726
-1.5561711449
-1.5177660797
-1.6796086253
-1.6766273603
-1.6519015971
-1.6105413635
-1.6268806489
-1.4561997642
-1.6215847547
-1.7325081761
-1.5942353156
-1.5955267815
-1.6593388083
-1.5408612082
-1.5437464187
-1.6853268971
-1.7398639469
-1.5225630364
-1.4810997815
-1.7192390077
-1.6790073440
-1.5200321640
-1.7093148192
-1.5877977739
-1.6810338788
-1.4322689455
-1.6004426776
-1.9738653168
-1.5788992905
-1.4739118977
-1.5172062493
-1.8392381415
-1.5286295165
-1.6911018009
-1.5991297022
-1.6526230045
-1.5952851338
-1.6623728112
-1.4872440531
-1.7218549324
-1.5416486114
-1.7877775258
-1.5404965558
-1.6248607259
-1.5112054345
-1.6235323825
-1.7007588533
-1.6232282103
-1.5764907727
-1.7136956091
-1.4423009601
-1.7536109178
-1.6394662790
-1.5718661278
-1.5597000556
-1.8545650643
-1.4313518546
-1.6428084763
-1.5993515381
-1.7349470336
-1.5417104809
-1.5542444227
-1.6352525916
-1.6349768666
-1.6865052258
-1.5416824849
-1.5264185613
-1.5190951297
-1.5446920693
-1.6941343663
-1.5502096012
-1.3797309550
-1.6560288361
-1.2966567407
-1.7684730312
-1.4386316850
-1.7111965700
-1.3369092701
-1.4878189121
-1.4727891999
-1.6198294316
-1.5239378295
-1.4107861100
-1.4601227008
-1.5359925043
-1.6329492998
-1.3508843725
-1.5572978191
-1.5652627817
-1.5093224126
-1.4310119757
-1.6528941408
-1.5071439679
-1.4973956517
-1.5789555508
-1.4269051955
-1.4888375109
-1.4538179539
-1.7201013392
-1.4413670350
-1.4285619876
-1.6470779096
-1.4893182970
-1.5979956057
-1.8072094553
-1.5336923333
-1.5758958332
-1.5444129427
-1.5666398284
-1.7391900270
-1.7631114737
-1.6018343571
-1.4029925839
-1.6642956113
-1.7150164098
-1.6725117420
-1.5558816036
-1.6747302458
-1.7883756140
-1.4610055331
-1.6280061648
-1.7428631588
-1.5483454162
-1.7980811241
-1.6094565973
-1.5351868702
-1.6704774428
-1.6743054998
-1.6308285576
-1.8275956561
-1.8556973150
-1.6422593923
-1.6908252370
-1.9108562650
-1.9663383911
-1.7444414894
-1.7094968446
-1.3257007915
-1.3378675658
-1.1867716533
-1.0854580684
-0.6028026326
-0.1788406349
-0.5195828704
-0.8859286759
-1.0212071361
-1.3189617268
-1.5797432451
-1.7417333554
-1.8954169270
-1.6061879917
-1.8984721669
-1.4853510329
-1.6874232489
-1.8700900071
-1.6968221992
-1.5732608240
-1.6440632546
-1.6939281884
-1.9073974817
-1.7001762831
-1.4592864986
-1.7182174037
-1.8783704202
-1.6141506902
-1.6217319667
-1.8685125106
-1.7478723632
-1.5580736389
-1.6705106807
-1.8940982575
-1.7700547081
-1.5458441876
-1.7853720822
-1.8063868184
-1.7044390138
-1.6679049961
-1.8258754026
-1.6379352676
-1.7454649801
-1.7883978138
-1.7818261820
-1.6737810617
-1.5177014007
-1.8930832154
-1.9395238120
-1.5215481165
-1.5907604381
-1.8529563565
-1.8186068185
-1.4641166604
-2.0281081430
-1.6040590439
-1.8013691902
-1.6581154952
-1.6637599934
-1.8377318167
-1.7340315115
-1.8766851239
-1.6119547579
-1.7422477109
-1.8152401871
-1.5656573499
-1.8560144989
-2.0629373828
-1.5339608221
-1.6207029574
-1.7658208188
-1.7606893462
-1.8239141178
-1.9094319068
-1.4482411554
-1.8456518599
-1.8088393649
-1.6077457331
-1.8427788758
-1.6958482788
-1.8450505129
-1.6131684324
-1.8171957370
-1.6984038041
-1.7794105661
-1.7570686118
-1.7587258672
-1.7031073670
-1.8875547200
-1.7619162989
-1.6761164020
-1.8132020749
-1.6841231831
-1.9904026739
-1.7566838343
-1.7285757735
-1.7060631365
-1.8281663016
-1.8387701118
-1.7259439472
-1.7864606132
-1.9952641046
-1.5793705758
-1.8817357344
-1.6774329115
-1.9168712110
-1.8949557200
-1.6877966811
-1.7812317477
-1.8090536936
-1.8512761975
-1.7986858357
-1.7074751546
-1.6943467130
-1.9522882236
-1.7436217061
-1.9337711360
-1.6105565878
-1.6682015193
-1.7821339610
-1.8245947002
-1.9956448842
-1.6055795029
-1.7913202949
-1.5825667839
-1.7144346312
-1.7753110702
-1.9756233916
-1.8154838932
-1.4595556755
-1.8158861515
-1.7504823814
-1.6537424073
-1.7470154721
-1.9881185871
-1.7443762978
-1.5424903198
-1.7736026311
-1.6596307554
-1.8593668741
-1.6825166126
-1.8652053984
-1.9949836050
-1.5436883031
-1.4896989048
-2.0505721009
-1.7623713186
-1.9302875043
-1.7280986021
-1.7994241920
-1.6479666298
-1.9707389873
-1.7287784947
-1.6813000910
-2.0066667624
-1.8431065698
-1.8006571646
-1.7155983503
-1.7385055186
-1.9491903689
-1.7201737464
-1.9440665163
-1.9558598901
-1.7236409526
-1.7992105433
-1.7281082602
-1.8259214411
-1.9022754169
-2.0028593780
-1.8908125010
-1.6875858356
-1.6077339541
-1.9701756326
-1.8952747909
-2.0501032518
-1.8372660096
-1.7372571446
-1.7896471249
-2.0078399490
-1.7744816372
-1.8910152919
-2.0843927335
-1.7734674066
-1.7821365879
-1.8126921563
-1.9737899147
-1.8754243741
-1.9520402985
-1.8697846659
-1.7979198239
-1.8776850660
-2.0005482157
-1.9512461223
-1.7057620117
-1.9839286688
-1.9474878577
-1.9030484270
-1.8551462732
-1.9545542661
-1.9167451640
-1.7234868891
-2.0008038867
-2.0570071681
-1.9362450403
-1.7134525455
-1.9180357726
-1.9427782790
-2.0540507628
-1.8214753351
-1.8692037538
-2.0156160928
-1.6839390170
-2.0896392761
-1.9234904950
-1.9627070166
-1.8872317807
-1.8484310750
-1.8448108197
-1.9606101474
-2.1245827913
-1.7076351256
-1.7754118592
-1.8625184655
-1.9675335180
-1.9642597482
-1.7581408668
-1.9103283076
-1.9235415695
-1.7725412077
-1.9594915185
-1.8563447705
-1.7487368932
-1.9182907588
-1.8742928126
-2.0532936313
-1.6709244667
-1.7503813926
-2.0206469394
-1.8665266210
-2.0319387311
-1.6135581228
-1.9169020364
-1.9796568007
-1.9099552091
-1.7969537813
-1.7864865156
-1.9976459299
-2.0468850334
-1.8730703407
-1.8209103017
-1.8623064806
-2.1641987704
-2.2130817749
-1.8326167435
-1.8851283563
-2.0893987256
-2.0717575911
-2.1007856557
-1.8560803905
-2.1422577461
-1.9062221628
-2.0665815223
-2.0989879518
-2.0132176219
-2.0003224539
-2.0548541647
-1.9835295603
-2.1180611529
-1.9818076959
-2.0658080960
-2.1439799156
-1.9420644130
-1.9702976549
-2.1990811981
-2.0990178731
-1.9067116770
-2.3475993453
-2.1014665673
-2.2807701262
-1.8652553715
-2.4212756357
-2.4324107646
-2.1408236097
-2.2638863272
-1.7566166077
-2.0772853683
-1.9375162340
-1.7747604649
-1.4491831105
-1.2638745155
-1.0508837336
-0.9417712796
-0.7610914527
-0.6916018862
-0.9867253179
-0.9846804827
-1.4372200378
-1.4635562967
-1.9141984985
-2.2099689510
-2.1065617700
-2.1794938123
-2.3211892401
-2.0999259584
-2.0866376475
-2.2394263603
-2.2933612027
-1.9152045395
-2.1832733678
-2.0966227649
-2.3435755229
-2.1123494447
-2.2550106823
-1.9977344311
-2.2768601602
-2.1100295508
-2.1766560789
-2.2917014590
-2.1990489760
-2.0045034297
-2.2264642498
-2.1360309607
-2.3210892015
-2.2157533720
-2.1559510416
-2.0585774573
-2.2556665444
-2.2882542658
-2.0137034736
-2.3429426242
-2.2317320211
-2.0205847658
-2.3059928421
-2.3838480457
-2.0396621912
-2.2248758787
-2.1533694981
-2.2119447477
-2.3461626650
-2.2371088872
-2.3324586229
-1.9864692672
-2.2348044896
-2.4032929725
-2.1597592870
-2.3522987019
-2.1392081722
-2.2143524929
-2.2373198252
-2.2280738435
-2.3173339541
-2.2053662216
-2.1691240543
-2.2801266479
-2.3140316367
-2.0859992447
-2.3792556696
-2.1637057368
-2.3338735495
-2.4108538386
-2.0790351498
-2.3489117206
-2.1003743806
-2.3630408716
-2.2868069572
-2.3663297577
-2.2895419010
-2.0816243752
-2.2826698247
-2.3800867687
-2.1764778242
-2.3029189184
-2.4093599934
-2.1897086820
-2.2401420387
-2.1861993699
-2.2901477726
-2.4874278803
-2.3261583789
-2.3510695382
-2.2312681045
-2.2414819679
-2.3563064295
-2.5579199102
-2.4235175172
-2.2689449654
-2.3144949207
-2.3877510765
-2.4453952227
-2.3103518784
-2.3256696169
-2.5873802624
-2.3474136732
-2.3590554246
-2.3164810382
-2.3211308616
-2.4506713188
-2.2573229158
-2.6164175855
-2.3412239984
-2.1274651711
-2.3135073927
-2.1912016776
-2.5780301311
-2.3340967215
-2.3530909854
-2.0483815304
-2.1444498097
-2.4452072455
-2.4043164345
-2.2256604231
-2.3431155583
-2.1308138345
-2.2084487471
-2.5830450852
-2.0943036418
-2.1867057707
-2.4445410982
-2.3405837650
-2.2350634910
-2.1950011313
-2.2951709781
-2.3826451738
-2.2787150742
-2.3777285840
-2.1783231552
-2.3478599374
-2.3417889878
-2.2540578338
-2.1855940464
-2.4571382447
-2.4759045932
-2.0343696793
-2.3395788927
-2.2757103277
-2.4714658634
-2.2641662748
-2.4560896379
-2.1840275827
-2.1517726627
-2.5860315512
-2.5149703005
-2.1764535786
-2.2029002227
-2.4737334224
-2.3216562300
-2.4441848985
-2.4443010185
-2.1572570985
-2.3528416663
-2.5140813773
-2.3011750826
-2.5066408730
-2.3444110517
-2.4018213436
-2.2468227948
-2.4933524491
-2.4048332717
-2.4003227586
-2.3471298530
-2.4581621197
-2.3155705945
-2.3019234399
-2.5056320799
-2.4283761005
-2.2968337649
-2.5821950302
-2.3814945974
-2.1904945410
-2.4805931564
-2.6219922762
-2.4655047156
-2.1090012867
-2.6541009975
-2.4373748871
-2.3899980876
-2.3369835425
-2.4721202420
-2.4976559952
-2.4106250641
-2.4899499073
-2.2891761621
-2.3318430052
-2.6817685181
-2.4666306549
-2.2795454105
-2.5447298767
-2.4381024322
-2.4998363285
-2.2697815899
-2.5437224968
-2.5080694993
-2.5156763667
-2.3282894804
-2.3267687750
-2.6179846681
-2.5098606734
-2.3720181980
-2.3821477514
-2.5712367560
-2.3856917979
-2.4299440984
-2.4863392385
-2.3622242369
-2.3852294849
-2.4762013841
-2.4833712999
-2.2389852559
-2.3619299343
-2.4183115154
-2.4564553684
-2.4491711232
-2.2657946119
-2.3790862697
-2.2869231693
-2.4755508538
-2.2717396561
-2.4066447459
-2.5141135045
-2.3371750288
-2.3133498479
-2.3925174380
-2.3377580639
-2.4447923207
-2.6424480212
-2.3463813198
-2.2343035574
-2.3535818543
-2.3862350579
-2.5229822178
-2.5376318818
-2.1734115756
-2.5947308011
-2.2675126761
-2.4313515618
-2.6024991938
-2.4719525985
-2.4363963202
-2.7073812991
-2.4495609134
-2.3843056395
-2.5272339117
-2.5674663804
-2.5685605456
-2.6839248670
-2.5257818742
-2.3640231758
-2.2603157866
-2.8683225528
-2.5941585057
-2.4567782822
-2.5336908892
-2.4306046011
-2.5681398981
-2.6157319420
-2.3919654636
-2.6370454760
-2.5559992514
-2.5057371086
-2.5376951528
-2.5758238425
-2.5290179516
-2.4992653693
-2.6577632710
-2.6827125022
-2.5723179952
-2.7270426451
-2.6569615494
-2.8278354759
-2.7165235554
-2.6780896449
-2.6569282798
-2.4667878540
-2.0975357090
-2.0477328504
-1.8145942153
-1.4231124136
-1.3545521697
-1.3819601427
-1.5595460936
-1.6359161277
-2.3158829740
-2.6309993859
-2.9547848496
-2.5862114880
-2.5140299623
-2.6742271536
-2.6818381926
-2.7692541212
-2.6248200045
-2.6587798281
-2.4950377497
-2.7521771348
-2.5732538861
-2.7573449676
-2.7606692627
-2.4627649997
-2.6277635596
-2.7528664715
-2.7519376581
-2.5461250165
-2.6345202314
-2.7190764414
-2.7642893944
-2.6280339969
-2.7098497069
-2.6192165083
-2.6210662525
-2.7665832234
-2.7001255466
-2.6893522960
-2.6934886025
-2.6055161394
-2.8258966643
-2.6572168221
-2.5374850733
-2.9773422446
-2.5089755574
-2.9155232767
-2.6859801514
-2.6968866861
-2.6286213127
-2.7322847805
-2.6941140703
-2.9380114262
-2.6234698829
-2.7749180372
-2.6692710936
-2.6928325259
-2.5796954421
-2.9980107084
-3.0143553352
-2.4722233802
-2.7318240052
-2.7232853564
-2.8218147547
-2.7732176410
-2.8836716213
-2.6950240975
-2.9757737697
-2.6527639530
-2.6503203809
-2.7855904317
-2.9038535457
-2.8365355295
-2.9114585882
-2.7001186673
-2.5660679743
-2.9664026142
-2.7571129634
-2.8696372840
-2.7306502789
-2.9046978450
-2.8445494959
-2.7415348875
-2.7235162221
-2.8141176537
-2.9218470216
-2.7989419888
-3.0180546037
-2.7562034007
-2.8276613898
-2.7553080837
-2.8457215683
-3.0157149388
-2.9327207523
-2.9934968532
-2.7207621947
-2.6703846161
-3.2198932345
-2.8056549866
-2.9274899380
-2.9109111158
-2.8927294873
-3.1533524859
-2.6550046316
-2.9259988000
-2.8975791277
-3.0206866007
-2.9455093419
-2.9144284053
-2.8625090614
-2.7884564013
-2.8635175049
-2.9621888912
-2.9269736541
-2.8533708584
-2.7112118377
-3.0362241248
-2.7358640623
-2.9133453728
-2.6941106773
-2.8569607624
-3.1371639634
-2.6966619751
-2.6400287032
-2.8750902104
-2.9604890190
-2.8662232970
-2.8557330077
-2.6028967949
-3.0400000000
-2.8805905120
-2.8201052692
-2.6822853567
-2.8840606242
-3.1762516834
-2.6130814981
-2.6178198122
-3.1552116061
-2.8003837492
-2.7669035934
-2.9478135266
-2.8732670497
-2.7105283829
-2.9224556759
-2.9503074555
-2.8776217646
-2.9731973976
-2.7363981420
-2.7895771187
-2.9555024503
-2.9507262256
-2.9116964755
-2.9778820575
-2.8633684403
-2.5284669444
-3.2305418347
-3.0440578730
-2.7799478604
-2.9032986863
-2.9103793014
-2.7416799369
-3.1921731641
-2.8714166686
-2.8493467893
-3.0405843937
-2.9239575328
-2.8426812182
-2.9999356169
-2.7628310578
-3.1359768892
-2.9781143495
-2.9627999726
-2.7698206122
-2.9680597899
-3.0440296697
-2.9896465531
-2.8264467405
-3.2111868298
-2.8488156826
-2.8406601213
-3.0256566484
-3.0241682944
-2.9816944186
-3.0247835810
-2.9009637769
-2.9105438448
-2.9646171543
-3.0791067582
-2.9716545676
-2.8989361967
-3.0379884465
-2.9094581642
-3.1317367894
-2.8111444041
-3.0121297472
-3.0814293715
-2.9573617370
-3.0479246080
-2.9461459156
-2.8067097836
-3.1307649933
-3.0581818471
-2.8833490648
-3.0030910668
-3.0904846459
-2.7398227546
-3.1492382605
-3.0447828203
-3.0316378722
-2.8390719358
-3.1832541931
-2.9415613328
-2.9691339803
-3.0725046973
-2.9178740746
-2.9959498350
-3.2649150585
-2.9520638773
-2.7588430783
-3.0509477340
-3.2252051185
-2.9504695840
-3.0319936730
-2.8067217826
-2.9786529397
-3.0782503942
-2.8694399287
-2.8660787187
-3.0453896574
-3.0667492026
-2.7766874388
-2.9590476456
-3.0001251240
-2.9329762259
-2.7712651652
-3.0490571738
-2.7864755744
-3.3114775052
-2.8863256874
-2.6488496852
-2.9610546701
-3.2091423868
-2.8854004529
-3.1136320374
-2.9103544719
-2.8811762570
-2.9298876841
-3.1651217761
-2.8763930383
-2.9643157454
-3.0930026903
-2.8678560736
-2.9822085964
-3.1082937343
-2.8885958694
-3.1223162238
-3.2283477364
-2.9689457117
-3.0487628019
-3.0983724560
-2.9348963372
-3.3859426269
-2.9645577968
-3.1227869212
-3.2662948121
-2.9033549971
-3.1466887173
-3.3243133972
-3.0401438629
-3.1450501965
-3.0795337758
-3.1593450653
-3.3213253907
-3.0151921721
-3.0802508173
-3.3727666610
-3.0161456662
-3.1909103213
-3.2456137426
-3.0965248782
-3.1131104576
-3.3335192797
-3.2077731960
-2.9822828643
-3.2392651894
-3.2491887742
-3.1954446573
-3.3261301510
-3.2206756131
-3.4511038001
-3.1727399130
-3.3510722570
-3.5308283135
-3.3851213963
-3.1623893377
-3.0706349207
-3.0007036325
-2.7566717367
-2.5334705795
-2.1614177760
-2.0786054337
-1.9691528258
-1.8438049116
-2.1000996452
-2.2228274608
-2.8795354239
-3.2364972920
-3.4256285070
-3.2248891732
-3.1999737920
-3.4342403443
-3.3057882475
-3.2237390242
-3.2891032050
-3.1258979509
-3.3247087322
-3.4079604851
-3.2052843908
-3.0355045667
-3.3919509341
-3.3043930002
-3.3659622390
-3.1261230997
-3.2470250546
-3.3149701432
-3.3322502669
-3.4163464395
-3.1538519658
-3.1653555839
-3.4060707044
-3.3735989826
-3.4276310645
-3.1712469841
-3.2898919028
-3.2200321085
-3.5164764721
-3.2390769524
-3.3511115795
-3.3613894178
-3.2500573905
-3.3317985648
-3.3096887510
-3.2932154549
-3.3830192942
-3.3819366154
-3.3133963904
-3.2872251779
-3.3095994075
-3.1793911133
-3.5250801246
-3.3445061382
-3.3899519014
-3.1928447081
-3.3424158507
-3.5209199690
-3.1947921282
-3.4292751175
-3.2779750432
-3.5993188217
-3.2896808156
-3.2231296680
-3.4565324069
-3.1954223010
-3.6030328581
-3.2840926777
-3.5234768071
-3.3370339928
-3.1269114420
-3.5899441175
-3.2751952888
-3.4926237761
-3.4237049676
-3.2820960841
-3.5546327549
-3.2660842794
-3.2095617329
-3.4921230574
-3.4863210125
-3.4476806220
-3.3819221056
-3.3482056993
-3.1382920737
-3.6210330813
-3.5025570233
-3.3883760133
-3.3220592964
-3.4837135731
-3.3355337891
-3.4352907064
-3.4453171098
-3.4548919019
-3.4407721429
-3.3480021645
-3.6198463243
-3.2727114604
-3.5561407623
-3.4136141073
-3.4186923034
-3.4868297735
-3.4614759972
-3.5145618388
-3.3891643743
-3.5979911407
-3.2209427484
-3.5226895496
-3.5267697206
-3.5480166293
-3.4182991059
-3.4003439238
-3.4827668145
-3.4031626597
-3.5567110177
-3.5499398780
-3.3639293514
-3.5619158710
-3.3565357628
-3.3997829105
-3.4820483546
-3.4333334046
-3.5171855621
-3.4589252451
-3.2485506698
-3.4649122245
-3.3296464687
-3.5616881256
-3.5016764852
-3.2589653270
-3.3574330747
-3.4198849552
-3.4356288276
-3.4020135576
-3.3693899718
-3.4031712624
-3.4865072030
-3.2353708768
-3.4875549224
-3.3369967087
-3.4925315792
-3.5322834836
-3.2057439587
-3.3572618844
-3.5194165283
-3.5645779702
-3.2909510548
-3.3027384544
-3.6004163317
-3.3494652148
-3.4889092004
-3.4989370628
-3.1407023117
-3.6412652106
-3.5738549277
-3.3674560265
-3.2838318921
-3.4827091687
-3.5565786511
-3.5134849256
-3.3347480485
-3.4368286369
-3.3997088371
-3.5224331861
-3.4535942024
-3.5724210433
-3.5115998678
-3.3570564420
-3.3310469133
-3.6521950383
-3.5947527323
-3.4760865233
-3.3644077072
-3.5838134768
-3.5050069292
-3.3597335311
-3.5956303216
-3.6499932144
-3.3770553392
-3.5167608181
-3.6088709450
-3.3652038749
-3.6345809002
-3.4628191036
-3.5834557080
-3.5865417816
-3.4668121673
-3.4855031543
-3.5553030798
-3.5741252596
-3.5282443675
-3.4385799316
-3.5561670922
-3.5861044882
-3.5459529710
-3.4567088060
-3.3877032251
-3.7983799232
-3.6211619635
-3.3011751934
-3.6811332003
-3.5034225494
-3.6369516629
-3.5260677933
-3.4901209255
-3.6609936577
-3.5049850881
-3.6587967174
-3.5082556906
-3.5655259298
-3.5410126867
-3.6659773248
-3.5147712412
-3.6161724433
-3.5165330336
-3.5766270796
-3.6743717498
-3.6762812463
-3.3154132672
-3.6797960544
-3.5111389008
-3.7598451265
-3.5477062829
-3.5801667715
-3.4837101569
-3.4537927074
-3.7680834567
-3.5388407744
-3.6898427758
-3.4721433426
-3.5396577564
-3.4868966231
-3.7842021745
-3.3578895884
-3.7651688440
-3.5357127321
-3.4750060647
-3.4953717427
-3.7075789205
-3.4751188548
-3.5077511092
-3.6075964818
-3.5212639028
-3.4330626446
-3.5666537916
-3.6559253851
-3.4068802130
-3.5225097084
-3.5505151993
-3.3785231666
-3.7033858547
-3.5238004799
-3.4072185765
-3.5757157150
-3.5021843809
-3.4466915466
-3.7061133123
-3.5587941349
-3.4221608398
-3.4992286805
-3.7216931016
-3.4599115243
-3.5494494773
-3.6186500254
-3.4237477493
-3.5834642650
-3.5871111357
-3.5627211252
-3.5591131752
-3.6779416940
-3.4300109050
-3.9878959113
-3.5981043126
-3.5176689724
-3.6218106703
-3.8088323754
-3.7112252670
-3.7003742419
-3.6328975149
-3.7219825940
-3.5481398855
-3.8540977303
-3.8064173942
-3.4080615989
-3.8605514698
-3.8647446135
-3.4486646297
-3.8408433619
-3.6773241839
-3.8278089392
-3.7587054080
-3.3999521074
-3.9298760500
-3.7509334088
-3.8204099334
-3.6573780299
-3.7398636118
-3.6196317423
-3.7149059476
-4.0360932668
-3.7125858380
-3.6915858387
-3.7116864210
-3.9702243222
-3.8308716199
-4.0193694084
-3.8986802915
-3.9978517884
-3.8731819960
-3.9347979070
-3.6900737205
-3.6000294007
-3.5727733130
-3.0998457772
-3.0954891954
-2.8038742305
-2.5205618698
-2.4987567479
-2.6587974091
-2.9126122907
-3.2450258568
-3.5259030242
-3.7539046777
-3.8698424686
-3.8952765440
-4.0531574767
-3.7937335069
-3.8077028628
-3.6574143598
-3.9302239815
-3.8544323515
-3.7839886366
-3.9321855701
-3.7217742772
-3.8509271509
-3.8386090486
-3.7014938174
-3.7974014598
-4.1262479038
-3.7092490950
-3.8347496813
-3.8246418160
-3.7223518259
-3.9380310691
-3.8870003221
-3.9851787684
-3.7630773134
-3.8204302666
-3.8133705542
-3.9772160992
-3.8694968534
-3.8553842620
-3.8779484044
-3.9350292467
-3.7751733003
-3.9439368655
-3.8155630617
-3.8764711580
-4.0308913896
-3.6948482053
-3.8753396973
-3.9602420993
-4.0229398569
-3.6985685326
-3.9110365160
-3.9410247445
-3.8851757966
-3.9855457045
-3.7051999028
-4.1586718542
-3.7450246685
-3.7848264772
-4.0807062442
-3.8973111468
-3.8003291602
-4.0290696941
-3.9139110397
-3.8124563586
-3.9659969061
-3.8891351960
-3.9557614755
-4.0731445783
-3.7723132446
-3.8310971220
-4.0802396399
-3.8904508212
-3.9982418453
-3.7683872255
-3.9116705291
-3.9509780438
-4.0365833180
-4.0353327400
-3.6277998793
-3.9161287082
-4.0559826273
-4.0425180978
-3.8386245081
-3.9665124566
-3.8580983826
-3.9100716077
-4.0455401765
-3.9832112329
-3.9271745062
-3.9420792204
-4.0652041952
-3.9370078951
-3.7961239746
-4.1208118244
-4.0360185953
-3.9696251216
-3.9675295064
-3.8811048994
-3.9200697513
-4.0981159260
-4.1029530800
-3.9288800751
-4.0001970712
-3.8215231581
-4.0291887977
-4.1804912440
-4.0234944572
-3.7545693579
-4.0973769627
-3.9638878965
-3.9995429345
-4.0909817279
-3.7661197801
-4.1685024903
-3.8020903014
-4.0048854696
-3.9538619632
-3.9761066017
-3.9649108746
-3.7458512647
-4.0885346692
-3.9115135162
-3.8888457455
-4.0082821634
-3.7631608727
-3.9720252856
-3.9741210837
-3.6818015692
-4.1482623882
-3.8431089907
-3.9072872746
-3.8429861712
-3.9420759286
-3.8299544092
-4.1317772947
-4.0089390207
-3.7634153269
-3.8471071015
-4.0138747338
-3.9789551381
-3.9834007188
-3.8796359732
-4.0615527353
-3.7567750612
-4.0534191349
-3.8207381617
-4.0876736505
-4.0176889914
-3.9532651075
-3.9208223470
-3.7963793101
-4.1083079042
-3.9489627057
-4.0869967538
-3.8139848044
-4.0574161904
-3.7600041512
-4.0744508135
-3.9939712167
-3.9354587557
-3.9613925302
-3.9984283545
-4.0444029612
-4.0367177562
-3.8540898991
-3.9494036682
-4.1464551923
-3.8469364851
-4.1510051867
-3.9706486699
-4.1040830223
-3.7183666654
-4.0634101603
-4.1283092902
-4.1061851563
-3.9533745660
-3.9760939014
-3.9236321916
-4.0244710749
-3.9765861995
-4.1059387878
-4.0791581843
-3.9374986674
-3.9970402806
-4.1101887994
-3.8907491240
-3.8346537644
-4.2515414572
-4.2331047526
-3.8697096059
-3.8816877150
-3.9644786730
-4.2230234598
-3.9918045753
-4.0351402649
-4.0282019181
-3.9996091646
-4.0986966271
-3.9707554852
-4.0267935575
-3.9780125515
-4.1283752050
-4.0951998859
-4.0770498409
-3.7830101188
-4.1502491713
-3.9978952311
-4.0970143601
-3.8973969305
-4.0853332186
-4.1187855150
-4.1292528441
-3.7778394412
-3.9859098358
-4.1815928838
-4.0348874192
-4.1365332801
-3.9197324142
-4.0005307602
-3.8056138297
-4.2327021530
-4.0250082828
-4.0004007784
-3.9295273018
-3.9320472729
-4.0490535069
-3.9346262059
-4.1108669860
-3.8370053429
-4.0535469240
-3.8482458305
-4.1245440549
-3.8665670477
-3.9587524481
-3.9537146703
-3.8733604809
-4.1186970239
-3.8865506230
-3.9930659768
-4.0369602392
-3.9307078304
-3.9299532047
-3.9962150642
-3.9912069957
-4.0934256863
-4.0147187217
-3.9882732743
-3.7142001515
-4.1521276596
-4.0194652054
-4.0388656317
-4.0248289335
-4.1696372571
-3.9515776974
-4.0712169953
-4.0392327659
-4.3550718059
-4.1500665714
-3.9141083020
-4.1171064893
-4.0889551966
-4.2962545954
-4.1760375186
-4.0437025325
-3.8897469117
-4.2568322912
-4.1986316075
-4.1597802085
-4.1602100569
-3.9363189314
-4.1662199062
-4.1731435075
-4.0403973300
-4.1539103342
-4.1255439791
-4.3167869097
-3.9161456660
-4.0739482763
-4.1465482254
-4.2570241884
-4.0513241129
-4.3203400537
-4.1521191192
-3.9431325656
-4.2569637499
-4.2936110803
-4.4009059828
-4.2335676761
-4.2184960021
-4.2194763600
-4.3759218154
-4.5253842642
-4.0446435594
-4.1849428902
-4.1252195792
-3.7870784861
-3.4364584314
-3.3840849624
-3.0889123641
-3.0446239784
-2.9643662689
-2.9584417316
-3.4031553557
-3.7644509782
-3.9764743901
-4.4707843308
-4.2074017056
-4.2386628524
-4.2462642276
-4.3471607786
-4.0025274480
-4.3337260022
-4.1780641547
-4.2718999817
-4.1797295302
-4.2537648063
-4.0828725738
-4.1847615831
-4.2527272209
-4.3131524095
-4.2020217287
-4.1588712722
-3.9815856160
-4.4575543230
-4.2517615647
-4.0638471863
-4.2584040205
-4.2469897777
-4.1403724287
-4.1938461721
-4.2188962442
-4.1852700056
-4.3949476395
-4.1118993954
-4.2676565170
-4.0549715384
-4.3551187931
-4.1898399262
-4.2538200438
-4.4077105955
-4.1095333762
-3.9896613035
-4.4195080765
-4.3704444635
-4.1658043195
-4.0731428696
-4.4440861250
-4.1528004917
-4.1374495346
-4.1602482574
-4.4994700592
-4.1550427841
-4.1671790147
-4.2428714034
-4.1108969176
-4.3159453101
-4.2350062599
-4.3499378603
-4.0860054245
-4.2794480237
-4.1223351798
-4.3800778910
-4.1683973670
-4.2354813522
-4.2351115198
-4.3612506430
-4.0724467546
-4.1835275314
-4.3251886171
-4.2309795605
-4.3194020158
-4.1091865183
-4.2937945479
-4.1050491182
-4.4398738283
-4.1306239788
-4.1798874944
-4.2751220597
-4.3151827210
-4.2631167951
-4.2211384365
-4.2827285821
-3.9835609706
-4.5357670077
-4.2091513609
-4.4279508001
-4.1850644655
-4.1020381908
-4.2064536713
-4.4709722885
-4.3302464331
-4.3431259207
-4.3462942955
-4.0682061684
-4.2704634386
-4.2828669257
-4.5728172498
-4.2078610734
-4.2425797476
-4.1844645627
-4.4325288035
-4.1536061839
-4.3742718935
-4.1276268420
-4.3344461500
-4.4955841547
-3.9607368659
-4.1534970851
-4.0936152857
-4.4126792054
-4.3744598586
-4.0267523065
-4.1711548452
-3.9691736178
-4.3334331704
-4.1786875752
-4.1234185986
-4.3759499551
-4.1153498100
-3.8897822220
-4.3143829331
-4.0060392320
-4.3514301525
-4.3134726554
-3.8325019567
-4.2745490885
-4.0909299893
-4.1678420567
-4.1583061199
-4.1613750768
-4.2133162746
-4.1772070544
-4.1633129001
-4.2013694067
-4.0177813912
-4.2432531847
-4.1634689976
-4.3103460321
-4.1075972519
-4.1123015098
-4.2014351303
-4.1685771794
-3.9670610154
-4.3116745393
-4.2291604311
-4.2332482415
-4.1881381163
-3.8430348192
-4.2641213875
-4.2503753128
-4.2557259338
-4.2907273472
-4.1055772756
-4.0212141630
-4.1917772913
-4.2175732562
-4.2310710337
-4.1355468440
-4.3167162847
-3.9244734704
-4.3036953058
-4.1494927306
-4.2491565116
-4.1148260136
-4.2842481712
-4.1814744032
-4.0632926698
-4.3464724752
-4.1711021278
-4.1518815751
-4.0900628878
-4.3731269593
-4.1429558255
-4.1919203785
-4.1581437184
-4.3247958867
-4.0937472761
-4.0789810499
-4.2255540997
-4.3736328512
-4.0995863665
-4.1271608823
-4.2799835387
-3.9542703866
-4.2194779007
-4.2745604248
-4.2215814796
-4.1155561437
-4.0258579297
-4.2617912142
-4.2387077562
-4.1018212787
-4.1204731504
-4.2170248583
-4.2179070210
-4.1404514561
-4.0590536063
-4.3361548937
-4.1291575720
-4.0292903438
-4.1314516489
-4.4348283166
-4.0021741221
-4.2092838403
-4.0158516944
-4.1571461562
-4.0838072882
-4.2202325177
-4.0530247839
-4.2596577482
-3.8503972090
-4.0283365251
-4.2274281267
-4.1876757618
-3.8101820157
-4.2483323766
-3.9132154659
-4.0185381287
-4.1965913254
-3.9497965930
-4.0297506420
-4.1744167629
-4.0505136827
-4.0048007237
-4.0686271483
-4.0439195132
-4.1834768843
-4.0642721086
-3.9473993827
-4.2760298432
-3.7491418832
-4.1410704495
-4.2495925032
-3.7952204715
-4.1513647734
-4.2184971280
-4.1467166421
-4.0326140019
-4.0196772041
-4.2485806581
-4.1995736251
-4.3017443043
-3.8491408679
-4.2229408777
-4.1959535034
-4.2064500014
-4.1359274241
-4.1718429879
-4.1510384526
-4.0866219824
-4.2743862889
-4.1056865774
-4.0776802894
-4.2220521453
-4.2225917057
-4.2156767218
-3.9850231963
-4.2993116623
-4.0388423172
-4.1893301848
-4.2936312844
-4.2186120257
-4.0703384146
-4.0865687558
-4.1916244119
-4.3045359963
-4.1968426885
-4.1137904388
-4.0969568935
-4.3858864557
-4.3479770672
-4.2639542583
-4.2165511634
-4.4162572003
-4.4599296666
-4.1584851973
-3.8803595329
-3.9714143955
-3.5938495448
-3.4573700704
-3.1506488820
-2.9183823885
-2.8613027052
-2.8774704433
-3.1348005486
-3.8531658872
-4.0295605393
-4.1745172371
-4.1938809585
-4.1552931865
-4.4144022749
-4.1491662014
-4.2699230878
-4.1362577892
-4.0891310447
-4.1985740280
-4.2261479927
-4.2072789777
-4.2150418651
-4.0750989732
-4.3082798108
-4.1057495532
-4.1910295231
-4.1482464087
-4.3607232979
-4.0705670698
-4.0938496777
-4.2945991203
-4.1737628602
-4.2380498132
-4.2170025363
-4.0959110471
-4.1809252564
-4.1617068863
-4.3218387551
-4.3028487996
-3.9365092192
-4.2302593822
-4.2003708511
-4.1613453917
-4.2421722113
-4.2899091355
-4.1506777199
-3.9595666306
-4.2615692349
-4.1630214103
-4.2676608560
-4.1455970843
-4.3531172533
-3.9981966053
-4.0926179344
-4.2636239283
-4.2578854334
-4.1719628610
-4.2352278440
-4.1695264397
-4.0867006484
-4.1718497851
-4.3022075573
-4.1496268917
-4.2085006880
-4.1721764472
-4.2031970065
-4.1935614472
-4.0940179122
-4.1996764974
-4.2419958176
-4.3108819172
-4.0539656162
-4.1098592839
-4.3025232261
-4.0621261996
-4.3591312466
-3.9559235761
-4.2946019851
-4.1312617412
-4.3105479134
-4.0139375092
-4.1669009122
-4.1031474879
-4.3913534236
-4.1671613124
-4.1818690958
-4.1549196309
-4.0719736572
-4.2432864872
-4.3960626172
-3.9902767974
-4.1609389884
-4.3336117384
-4.2099891952
-4.2213864383
-4.0881063964
-4.1548907507
-4.2315553756
-4.3697838517
-4.3087515642
-3.9645686259
-4.2377362414
-4.1429743876
-4.2084825383
-4.2502499987
-4.3018495202
-4.0752176231
-4.1679128199
-3.9502729914
-4.2332564638
-4.3081143864
-4.0695300549
-4.1039347874
-4.0707288180
-3.9992177993
-4.2241321902
-4.0973996997
-3.9462726394
-4.2184333041
-4.0343386094
-3.9323846037
-4.2421097262
-4.0324682053
-3.9833302948
-4.0722014648
-4.0134880523
-4.2179460230
-4.0275771805
-3.7848617746
-4.4015518364
-3.7778527419
-4.1166714693
-4.0914644108
-4.0425328432
-4.0177486028
-4.0204814091
-3.9744656525
-4.0056500293
-4.1791626553
-4.1393060392
-3.8973141639
-3.8543087552
-4.2505959270
-4.0586018645
-4.0524523481
-4.0439665203
-4.1253375162
-3.9378031387
-3.9829449540
-4.1988558468
-4.0921849157
-3.9950497220
-3.9299020795
-4.3058493981
-3.8978153993
-4.0306373085
-4.1378766588
-3.9738689896
-4.1951763467
-3.9833259576
-4.0833672693
-4.0441164743
-4.0681030823
-3.9873577705
-4.0990817870
-4.1769572601
-4.0212974652
-3.9833736106
-4.1233699657
-4.0869778303
-3.9777295687
-4.1736387928
-4.1123464827
-4.0446341451
-3.9445989764
-4.3233977609
-3.9188866073
-3.9430130532
-4.2486189960
-4.1550963524
-4.0106998807
-3.9578474122
-4.0495638984
-4.1171654706
-4.1162935527
-4.1610016648
-3.9600055813
-4.0231582316
-4.0374301240
-4.0591096229
-4.2474466006
-4.0290544972
-3.9710438290
-4.0330341600
-4.0819295904
-4.0617104729
-4.2017373723
-4.0045498398
-3.9509613309
-4.1751480063
-4.1279527849
-3.9079502408
-4.1016558341
-4.2046937898
-3.9940097496
-4.0941197563
-4.1334012429
-3.8106062374
-4.2427375107
-4.0608190740
-4.1590982103
-3.9368917768
-4.1610285326
-3.7891414614
-4.1419164136
-4.0706367623
-3.9805117222
-3.9747284811
-4.0896946308
-3.9344773113
-3.9341182762
-4.0551005527
-4.0364684223
-4.0940341758
-3.7233178864
-4.1784505744
-3.9276956868
-3.9618516131
-3.9702645361
-3.9832403984
-3.9331783750
-4.0937506296
-3.9779212726
-3.7632126419
-4.1633441195
-4.0694355439
-3.9878216470
-3.8348035959
-3.9841048527
-4.2361154159
-3.8823233097
-3.8730448338
-3.9861711232
-4.0555944378
-3.9859185463
-4.0173621116
-4.0649046331
-3.9963541209
-4.2124516559
-4.0788224611
-4.0366010672
-4.2397662033
-3.9385115305
-4.1864259878
-4.1165285875
-4.2552106945
-4.1228985474
-3.9134924408
-4.2588366298
-4.0105980308
-4.1375186345
-4.4233582963
-4.0221750004
-3.9172152700
-4.0763736457
-4.2829418106
-4.1764911745
-4.0692329991
-4.2134540809
-3.8127341183
-4.3155962119
-4.2042109515
-3.9151261875
-4.3307416742
-4.2046591331
-4.3223103438
-4.1521425257
-4.3640945924
-4.3119813759
-4.4181058973
-4.2578749990
-4.0575026886
-4.0654734138
-3.9122949278
-3.7610738198
-3.5596186762
-3.4011964990
-3.4132683116
-3.0848603868
-2.7997703309
-3.0008914889
-2.6659298288
-2.6806220670
-2.8415828999
-3.2882617424
-3.9080297218
-3.8917295168
-3.9489327226
-4.2294003782
-4.3191284425
-4.2124520936
-4.2457741357
-3.9816367924
-4.0431679315
-4.1536879261
-4.2271215746
-4.1838330607
-4.2395994627
-4.0119886905
-4.2372935381
-4.1815753153
-4.1518983718
-4.0573724112
-4.2421274412
-4.1095429806
-4.4595040303
-4.0868603230
-3.9209132548
-4.1585298115
-4.1516285631
-4.5154262036
-4.0865341114
-4.1738064203
-3.9335212886
-4.2887130379
-4.0796413739
-4.3823338943
-4.1742677595
-4.1021477492
-4.0596449536
-4.1601233703
-4.2200990297
-4.1540375081
-4.2372760332
-4.0011257339
-4.1167175268
-4.4364677265
-4.0903800902
-3.9868614393
-4.1651919445
-4.3311680959
-4.0869433350
-4.2919900807
-4.1454020142
-3.9953282542
-4.2810730806
-4.2182337568
-4.2136000135
-4.1365771487
-4.0323779067
-4.2641115685
-4.3815782125
-3.9964185742
-4.1811989872
-4.1086979369
-4.1143423462
-4.3249091229
-4.2742653050
-4.1026773614
-4.0696339135
-4.1226192870
-4.1646870511
-4.3543754600
-4.2391454117
-4.0930645719
-4.1935224625
-4.0685075368
-4.3060940610
-4.0003846799
-4.3702753639
-4.1704075922
-4.2905435446
-4.0624849557
-4.1146306376
-4.1059309803
-4.3923077241
-4.1754466521
-4.3019449954
-4.0869166593
-4.0969681842
-4.1807608803
-4.1951239703
-4.3017651095
-4.2949964101
-4.0010651254
-4.2442112246
-4.1804063441
-4.0422566256
-4.3878053061
-4.3104183102
-4.0058467941
-4.1549477106
-4.2009823435
-4.2876552394
-4.0865825255
-4.1136572851
-4.1027153281
-4.2252758874
-4.1564592660
-4.0767951323
-4.2008893431
-3.9212943992
-4.0265882606
-4.3742623734
-4.1629062491
-4.1278214098
-3.8720300549
-4.0623684533
-4.1294507326
-4.3000434518
-3.9579550288
-4.2085845802
-3.9802072859
-3.9911830228
-4.0836348800
-4.2046145393
-4.1952331935
-4.0157656105
-4.0704061420
-4.1480709343
-3.9779939576
-4.0859696697
-4.2990327767
-4.0204722503
-4.1953092220
-3.9945987457
-4.0359970773
-4.0935434768
-4.2976613277
-4.1214678117
-3.9869093722
-4.0785297802
-4.2891888402
-3.9636801418
-4.1729674008
-4.1258329080
-4.0753871144
-4.1030040693
-4.1488985043
-4.1565883844
-4.1278996510
-4.0513016119
-4.2118105663
-4.1506346890
-4.1498067386
-4.2506922602
-3.9937059001
-4.1725080007
-4.3171975496
-4.0368497211
-4.1388473221
-4.1325682323
-4.1592002476
-4.3654807945
-4.1239136390
-3.9653717061
-4.0547797530
-4.2830051840
-4.3625206899
-4.0798311582
-4.1995674238
-3.8327026251
-4.2361763020
-4.3511072628
-4.2585144520
-4.0584563819
-4.1293416013
-4.0814374564
-4.2559973995
-4.1082063435
-4.3049767056
-4.1261100503
-4.1209231631
-4.1454939647
-4.2211945957
-4.1943965490
-4.0261834317
-4.2767591306
-4.2225406425
-4.1198665088
-4.1546044975
-4.1052542167
-4.0727633377
-4.3704043960
-4.0350419023
-4.2467277423
-4.0946554051
-4.1469419794
-4.1068430887
-4.0917931063
-4.2764735692
-4.2137251068
-3.9916111213
-4.0976789521
-4.0247953562
-4.3024489182
-4.0610857885
-4.1578840697
-3.8741650352
-4.2878295960
-4.0286725549
-4.1130947300
-4.0446536205
-3.9861500077
-4.1162396363
-4.1202035752
-3.9693557165
-4.0284121146
-4.1054566763
-3.9361718127
-4.3088047624
-4.0504768583
-3.9499809630
-4.1016650061
-3.8843563156
-4.3454153146
-4.0674824267
-4.0169829919
-4.1040176889
-3.9087514466
-4.2021699877
-4.0858689441
-4.1650010772
-4.1414072111
-3.8834476672
-4.0756549967
-4.0625012289
-4.2069882591
-4.2698241153
-4.0844170500
-4.1502277964
-4.2310655054
-3.9762069979
-4.3112190324
-4.2729180427
-4.2707799555
-4.1303468669
-4.0642047026
-4.2211069237
-4.1868588030
-4.1766156651
-4.2846847223
-4.1991788908
-4.0471911700
-4.3007382418
-4.1127256209
-4.1692409770
-4.3420660710
-4.1205838280
-4.2407265233
-4.1297782033
-4.2252478832
-4.1783989296
-4.2869132616
-4.2825739050
-4.2716911628
-4.1394647809
-4.4733827113
-4.4607470476
-4.2797209554
-4.4761792673
-4.2935932223
-4.3200892822
-4.0720290141
-3.9273545772
-3.7732154867
-3.4947508171
-3.1385098777
-2.9360234272
-3.0348565492
-3.0992193381
-3.3131620450
-3.9052654693
-4.0466406625
-4.1832177790
-4.3460324628
-4.3542214216
-4.2499670587
-4.2143393956
-4.4173230138
-4.1415001563
-4.1566079608
-4.2105733481
-4.2819904220
-4.2741049884
-4.3379905254
-4.0588216424
-4.0783720156
-4.3921497402
-4.2402373859
-4.2882262532
-4.2126154902
-4.1457157652
-4.2511916297
-4.2929458842
-4.1223649486
-4.3792448181
-4.1660357344
-4.2067929172
-4.2080506794
-4.1631322227
-4.3875895721
-4.2819511086
-4.1899209216
-4.1791288366
-4.0927101024
-4.4243527508
-4.3199870065
-4.1595130425
-4.2385760368
-4.1194080923
-4.3153538039
-4.2147395790
-4.3475264829
-4.1558648433
-4.2880034862
-4.2339160497
-4.2116368348
-3.9074477059
-4.6192822851
-4.2853353149
-4.1408712706
-4.0843212737
-4.2322304166
-4.2904964970
-4.1606168519
-4.3816012334
-4.2601656396
-4.1725141289
-4.1845010443
-4.1387776090
-4.3678664270
-4.4032754238
-4.2639109540
-4.0300630343
-4.2884005664
-4.1755960717
-4.3880165098
-4.3873889222
-4.1260093280
-4.1173921298
-4.3413109711
-4.3129403262
-4.2392370983
-4.2367918461
-4.1197980283
-4.2853500497
-4.4476160242
-3.9475750964
-4.4557458526
-4.1712815403
-4.1542689885
-4.3960541137
-4.2496754024
-4.1532818777
-4.3869006484
-4.2213996130
-4.3026683272
-4.3271395661
-4.1398521856
-4.4272084783
-4.1909604136
-4.3178551443
-4.3163087636
-4.2987258840
-4.1173113506
-4.4160933431
-4.4538301958
-4.2301358502
-4.1457925622
-4.3302787240
-4.3897575427
-4.2515386953
-4.3106295714
-4.1672140018
-4.3597407103
-4.0337382893
-4.4633138746
-4.1928524059
-4.1820235036
-4.0927445305
-4.3324774902
-4.3396930287
-4.0203460073
-4.2129590674
-4.1310245509
-4.3189027061
-4.2641553167
-4.1958705261
-3.9398498567
-4.3531235077
-4.3103496293
-4.1482113787
-4.0622682140
-4.2596770721
-4.2323893343
-4.2880076734
-4.1492842182
-4.0308428184
-4.2181107746
-4.2914120612
-4.1830958026
-4.2925744030
-3.9660085051
-4.2130388513
-4.2572541120
-4.2065382999
-4.2726260598
-4.1227557254
-4.1596003508
-4.1955816262
-4.2540339624
-4.3032200071
-3.9146664782
-4.5216073115
-4.0938838245
-4.2569192680
-4.1817827384
-4.2171768859
-4.3359973957
-4.1138364826
-4.1257639085
-4.3764326471
-4.3373752650
-4.0568671093
-4.2498411654
-4.0835478299
-4.3614511899
-4.2230754356
-4.2576003030
-4.2300113030
-4.1927807440
-4.0927644380
-4.3721582624
-4.0575035058
-4.4300753552
-4.3295254019
-4.2657989146
-3.9753000125
-4.2170874831
-4.3791673248
-4.4194328780
-4.1849454789
-4.1686810302
-4.3520992177
-4.1426906688
-4.2624717535
-4.3517377078
-4.3042024069
-4.2159780852
-4.2849974378
-4.1780670470
-4.3785616263
-4.1723420917
-4.2323330789
-4.3336122708
-4.3008104307
-4.2048520986
-4.4006770910
-4.0778262911
-4.2618090831
-4.3025766497
-4.3811670373
-4.2966719444
-4.2465249588
-4.1731102925
-4.1194621742
-4.4303315020
-4.3126229178
-4.2807445177
-4.2816757355
-4.1723777425
-4.4048544931
-3.9198632294
-4.4626573984
-4.1905122235
-4.4028128495
-4.0235566334
-4.1614433709
-4.1648594178
-4.2921153660
-4.2647837675
-4.0737177599
-4.3303615149
-3.9207068823
-4.2229566912
-4.2901621048
-4.1802233844
-4.3056160668
-3.8702396575
-4.3256118544
-4.2842011871
-4.3473702314
-3.8819216850
-4.1097636588
-4.5007324729
-4.2139839985
-3.9268732614
-4.4143342193
-4.1890818671
-4.1423600570
-4.3657388645
-4.1979940149
-4.1403261663
-4.1534453062
-4.2630349649
-4.2276064587
-4.3887227128
-4.3785064758
-4.0173650177
-4.3607914476
-4.4518565724
-4.3090714330
-4.3934259543
-4.3906855716
-4.2064990189
-4.2728034919
-4.4361962720
-4.3873673590
-4.4881954869
-4.0836637666
-4.4119158311
-4.4304343777
-4.3129617928
-4.3150161414
-4.4139492420
-4.4122585054
-4.4253002196
-4.0982414687
-4.3367253616
-4.5457881790
-4.4268296687
-4.3120286876
-4.1885618345
-4.5369318848
-4.3590730841
-4.2564206612
-4.6619818759
-4.2495223638
-4.5058894321
-4.4721395416
-4.6767110718
-4.3595542772
-4.6750314373
-4.4026009985
-4.5127712360
-4.3808851267
-4.1298689552
-3.9616100323
-3.5069542470
-3.3534054050
-3.3662899935
-3.1095238983
-3.1470846985
-3.4334965400
-3.7946953129
-4.3139737628
-4.4256640020
-4.4780309814
-4.4952713043
-4.5606850519
-4.3181018217
-4.5950745301
-4.4545632913
-4.4588672180
-4.2235599029
-4.3571015951
-4.7142905976
-4.4445898831
-4.3999677891
-4.3434436036
-4.2867321695
-4.5033576321
-4.6065146714
-4.5019901861
-4.2610616082
-4.4070946489
-4.4742246445
-4.5939539037
-4.3343900542
-4.5025839760
-4.3452980463
-4.5802090359
-4.6180883371
-4.3034497720
-4.3827898679
-4.6275946771
-4.4666682337
-4.4447821311
-4.5084743958
-4.4242828051
-4.3809612641
-4.6494583524
-4.4370897341
-4.4918071364
-4.4075634064
-4.4027789698
-4.7314426815
-4.3472654987
-4.6886582658
-4.2166745527
-4.3513269489
-4.6834001786
-4.6033986253
-4.4472037234
-4.4497619771
-4.4949826922
-4.5226546182
-4.2960494175
-4.5460202363
-4.8177279052
-4.3198061084
-4.5321130118
-4.3794213116
-4.4351827087
-4.6239331651
-4.5364938747
-4.5644624035
-4.3217760786
-4.5779869585
-4.6022021997
-4.3682765957
-4.4250914156
-4.7698871317
-4.2767121244
-4.7813950221
-4.3346507681
-4.4630885661
-4.6151098061
-4.3573252407
-4.5585510434
-4.6515399282
-4.5652068372
-4.4872856305
-4.3088333399
-4.5387094387
-4.7538684418
-4.4027653269
-4.6686214979
-4.5183695255
-4.5615260951
-4.2878697454
-4.7281563074
-4.7142786988
-4.4785700577
-4.6541795378
-4.3725411928
-4.8596566751
-4.4527532756
-4.4865464611
-4.6712900032
-4.6994647429
-4.5287031766
-4.5167396369
-4.5076629522
-4.6406210654
-4.5464877275
-4.6257779969
-4.5508974290
-4.4827908486
-4.5351698615
-4.4795884787
